"","SampleName","lake","lakename","campaign","location","duplicate","pCH4.meas","iso.CH4.meas","pCH4.head","iso.CH4.head","pCO2.meas","iso.CO2.meas","pCO2.head","iso.CO2.head","ID","ID.rep","Sample.type","temp.in","temp.sam","atm","vol.tot","vol.head","sal","pCO2.insitu","pCO2.insitu.error","pCH4.insitu","pCH4.insitu.error","conc.CO2.insitu","conc.CO2.insitu.error","conc.CH4.insitu","conc.CH4.insitu.error","sat.CO2.insitu","sat.CH4.insitu","iso.CO2.insitu","iso.CO2.insitu.error","iso.CH4.insitu","iso.CH4.insitu.error"
"1","ALX-1-1-A","ALX","ALEXANDRINA","1","1","A",3.14613334778911,-44.2506236798514,1.82253550909306,-49.7576389999681,292.787118824852,-6.83214766480197,402.178205123756,-6.52239782237048,"ALX-1-1-A","ALX-1-1-A","gleon",19,19,101.325,0.14,0.035,0,255.06924922422,19.9256634459569,14.7236970222411,2.43675174093921,10.2860848787518,0.803534985475207,0.023405232668988,0.00387353402933327,63.4219472797467,807.868869977078,-8.10264559199904,0.490949356804699,-37.9580118145311,1.54191226280892
"2","ALX-1-2-A","ALX","ALEXANDRINA","1","2","A",30.9121757228608,-36.1451893632217,1.82253550909306,-49.7576389999681,171.848318446804,-4.55342259483629,402.178205123756,-6.52239782237048,"ALX-1-2-A","ALX-1-2-A","gleon",20,20,101.325,0.14,0.035,0,90.3485997781991,11.6574298585295,289.711212239116,24.562930343299,3.53825250012428,0.456530930675457,0.451246877418553,0.0382586008045655,22.4648174931303,15896.05309711,-2.55012692246932,0.925455745470765,-35.0533361799329,0.530788713597757
"3","ALX-1-3-A","ALX","ALEXANDRINA","1","3","A",10.6443430479505,-33.0649381693267,1.82253550909306,-49.7576389999681,185.259778999703,-4.15940042356386,402.178205123756,-6.52239782237048,"ALX-1-3-A","ALX-1-3-A","gleon",20,20,101.325,0.14,0.035,0,108.50555939666,12.4602892557942,89.1284794831474,8.41914425359905,4.24931949975006,0.487972693764135,0.138824271746303,0.0131134467513715,26.9794727845262,4890.35626677585,-2.1583003487899,0.821304678562401,-29.6981785470982,0.655802055702821
"4","ALX-1-4-A","ALX","ALEXANDRINA","1","4","A",5.5801333696606,-43.0416227949753,1.82253550909306,-49.7576389999681,193.198141484335,-4.25078478303251,402.178205123756,-6.52239782237048,"ALX-1-4-A","ALX-1-4-A","gleon",20.1,19.9,101.325,0.14,0.035,0,120.138741797741,13.0248011599258,39.1112310424938,4.45264047747247,4.69125764218911,0.508601114554411,0.0607962918850799,0.00692138863728482,29.872016998229,2145.97909600986,-2.64968451311744,0.765090203339996,-39.9208015074398,0.786894961173124
"5","ALX-1-5-A","ALX","ALEXANDRINA","1","5","A",5.26742985649604,-43.8692398581039,1.82253550909306,-49.7576389999681,191.505516953565,-4.53478731216831,402.178205123756,-6.52239782237048,"ALX-1-5-A","ALX-1-5-A","gleon",20.3,20.5,101.325,0.14,0.035,0,115.335320498144,12.9345977331591,36.0268314838618,4.17165913355001,4.47767188822489,0.502160868024776,0.0557777842437693,0.00645868352852327,28.6776655295515,1976.74236272026,-3.16111434922252,0.76692304646085,-40.8776257723408,0.794858260269963
"6","ALX-1-6-A","ALX","ALEXANDRINA","1","6","A",3.94396976973664,-29.6574820900198,1.82253550909306,-49.7576389999681,691.084964984752,-12.0071432713366,402.178205123756,-6.52239782237048,"ALX-1-6-A","ALX-1-6-A","gleon",20.5,20.4,101.325,0.14,0.035,0,796.657269748173,47.7137227623044,22.9892321818978,3.16537076891048,30.7505815763978,1.84172639832894,0.0354509164514223,0.00488121107214624,198.08563954952,1261.38734017522,-14.096168248633,0.376090211016749,-15.027713646048,2.31229296911567
"7","ALX-2-1-A","ALX","ALEXANDRINA","2","1","A",95.47381481357,-35.8907022889482,1.97314327525936,-50.2721429892266,252.287703453575,-5.81084892716735,401.891763397045,-6.68791934947143,"ALX-2-1-A","ALX-2-1-A","gleon",32,24.45,101.325,0.14,0.035,0,234.050869502719,21.3754914106996,1118.3720222562,91.0975204858199,6.67920208926639,0.610000839530237,1.41286864278995,0.115085881593026,58.2372894443948,56679.7168902596,-6.17024462217064,0.575597697341176,-35.2865515547312,0.506204591869673
"8","ALX-2-2-A","ALX","ALEXANDRINA","2","2","A",82.6092312020778,-37.5947219124819,1.97314327525936,-50.2721429892266,224.408195379897,-4.10337333782673,401.891763397045,-6.68791934947143,"ALX-2-2-A","ALX-2-2-A","gleon",30,24.45,101.325,0.14,0.035,0,178.103122218139,18.030396356698,935.68014325008,76.6611370740549,5.3348875253722,0.540081136158026,1.21886307273946,0.0998625756545627,44.3161911835909,47420.7907242362,-2.52547525673084,0.697281050993396,-36.9845885715203,0.50848962954716
"9","ALX-2-3-A","ALX","ALEXANDRINA","2","3","A",31.8062734109637,-46.7088945070207,1.97314327525936,-50.2721429892266,216.240615604301,-4.21104793855358,401.891763397045,-6.68791934947143,"ALX-2-3-A","ALX-2-3-A","gleon",30,24.45,101.325,0.14,0.035,0,164.955250821832,17.3809987904145,347.541173376081,29.200509535439,4.94105717459684,0.520629130307564,0.452724262174951,0.0380380229661563,41.0446955736354,17613.580206455,-2.54086514368246,0.742768380089356,-46.166911453262,0.529513008748077
"10","ALX-2-4-A","ALX","ALEXANDRINA","2","4","A",24.5543078921451,-47.6737251897098,1.97314327525936,-50.2721429892266,209.393317937047,-3.8338367654743,401.891763397045,-6.68791934947143,"ALX-2-4-A","ALX-2-4-A","gleon",28,24.45,101.325,0.14,0.035,0,146.408942372137,16.0907705621907,255.213619122396,22.264526590904,4.61088915466327,0.506750190755422,0.343360310184457,0.0299543370085459,36.4299435088183,12934.3683412371,-1.51795566297613,0.788670324270598,-47.1399047684361,0.535093897629152
"11","ALX-2-5-A","ALX","ALEXANDRINA","2","5","A",27.2529347314819,-45.0849978372073,1.97314327525936,-50.2721429892266,219.919727320985,-2.89716966152855,401.891763397045,-6.68791934947143,"ALX-2-5-A","ALX-2-5-A","gleon",27,24.45,101.325,0.14,0.035,0,158.40306501328,16.3667665771116,280.716722790664,24.0531912784078,5.11845928118572,0.528857369537602,0.384057207505828,0.0329079129385449,39.4143596460791,14226.8798373887,0.0858725346651574,0.791143196356221,-44.3912325226841,0.53456215361363
"12","ALX-2-6-A","ALX","ALEXANDRINA","2","6","A",15.3791052991296,-39.4613622898497,1.97314327525936,-50.2721429892266,174.371239878135,-7.44380913435441,401.891763397045,-6.68791934947143,"ALX-2-6-A","ALX-2-6-A","gleon",29,24.45,101.325,0.14,0.035,0,95.1615446619645,13.6920996516789,154.878616004377,14.0044560289756,2.92216891368871,0.420449543010161,0.204992799572096,0.0185358877934633,23.6784013331347,7849.33450836301,-9.94259698272929,0.959471545086718,-37.7109734348812,0.573406448623633
"13","ALX-3-1-A","ALX","ALEXANDRINA","3","1","A",29.2904355909275,-39.6468269713627,1.82253550909306,-49.7576389999681,233.37116510513,-4.22131219606082,415.644636397948,-6.7406112395391,"ALX-3-1-A","ALX-3-1-A","gleon",21,21,101.325,0.14,0.035,0,167.214932167331,15.9818469073166,277.724629143036,23.6496459669383,6.36241526283504,0.608098483630941,0.424055540215371,0.0361104574245274,40.2302634328319,15238.3658786017,-3.04234453973108,0.637916304149448,-38.7167132582562,0.538568213385787
"14","ALX-3-2-A","ALX","ALEXANDRINA","3","2","A",44.6366998450567,-38.1865909344897,1.82253550909306,-49.7576389999681,206.695431492886,-4.14907111452267,415.644636397948,-6.7406112395391,"ALX-3-2-A","ALX-3-2-A","gleon",22,21,101.325,0.14,0.035,0,134.622135535793,14.5864774588517,440.342700356838,36.8097390172865,4.97902923857007,0.539484071221377,0.659419821578929,0.0551231382182013,32.3887580271584,24160.9942939309,-2.25532125297578,0.765350707462298,-37.4149381670481,0.518975838098686
"15","ALX-3-3-A","ALX","ALEXANDRINA","3","3","A",18.2428287971399,-44.9463115777358,1.82253550909306,-49.7576389999681,206.078152240881,-2.88127219587628,415.644636397948,-6.7406112395391,"ALX-3-3-A","ALX-3-3-A","gleon",21,21,101.325,0.14,0.035,0,130.015908824349,14.1150706287032,166.75663250079,14.5556705858137,4.94701754199572,0.537068906706176,0.254619383588045,0.0222249383229358,31.2805453117574,9149.70554311847,0.502846688950651,0.859182256085011,-44.1407095404795,0.549737848158095
"16","ALX-3-4-A","ALX","ALEXANDRINA","3","4","A",9.98416003783861,-49.434801462302,1.82253550909306,-49.7576389999681,209.266700940495,-3.56833004436396,415.644636397948,-6.7406112395391,"ALX-3-4-A","ALX-3-4-A","gleon",21,21,101.325,0.14,0.035,0,134.36174261328,14.1804813309805,83.8022022555967,8.08171446377148,5.11237358328974,0.539557739761504,0.127956919983616,0.0123399059110308,32.326110058266,4598.11080977506,-1.10046282376415,0.785875641190327,-49.0412990089018,0.602046092097051
"17","ALX-3-5-A","ALX","ALEXANDRINA","3","5","A",11.976694488901,-46.688632106495,1.82253550909306,-49.7576389999681,206.007427097772,-5.96828856692871,415.644636397948,-6.7406112395391,"ALX-3-5-A","ALX-3-5-A","gleon",22,21,101.325,0.14,0.035,0,133.657440544637,14.4983441545284,105.85285428226,9.86084344301596,4.94334978252703,0.536224441611647,0.158516242526249,0.0147667614758732,32.156661927106,5807.99955633978,-6.16539211587003,0.690175584511439,-45.8713344187032,0.581791305952448
"18","ALX-3-6-A","ALX","ALEXANDRINA","3","6","A",14.3827249278621,-32.4522963587931,1.82253550909306,-49.7576389999681,200.787754160739,-10.523823094935,415.644636397948,-6.7406112395391,"ALX-3-6-A","ALX-3-6-A","gleon",24,21,101.325,0.14,0.035,0,133.52980873226,15.0316917758618,135.477919272913,12.1992136664536,4.67266097234142,0.526009886303129,0.195417316027088,0.0175965028480915,32.1259549718851,7433.48585511681,-16.2651527866792,0.895369255400713,-29.8934126264924,0.602044778812803
"19","ERK-1-1-A","ERK","ERKEN","1","1","A",21.6902925679691,-48.3476140377216,1.99428961271219,-54.1162244001474,473.91118505165,-10.0790830581046,417.515475325092,-7.47197478345802,"ERK-1-1-A","ERK-1-1-A","gleon",21,17.6,101.325,0.14,0.035,0,544.43432147951,34.3753859860735,203.477941498592,17.9261762943125,20.7153583217446,1.30796022597299,0.310688859934195,0.0273713368379927,130.398596855744,10203.0286976156,-11.921069303892,0.406556234304483,-47.500272751755,0.553950050688929
"20","ERK-1-2-A","ERK","ERKEN","1","2","A",22.3977527446373,-48.3390740944559,1.99428961271219,-54.1162244001474,447.57846093886,-10.1322478339212,417.515475325092,-7.47197478345802,"ERK-1-2-A","ERK-1-2-A","gleon",21,17.8,101.325,0.14,0.035,0,502.682215688616,32.7841054610962,210.479708749694,18.3133022583111,19.1267188880746,1.24741307645505,0.321379802985554,0.0279624364113412,120.398463146117,10554.1194923763,-12.050047906354,0.415546547886629,-47.5085464572899,0.532238562356131
"21","ERK-1-3-A","ERK","ERKEN","1","3","A",13.935590983798,-50.7009210061724,1.99428961271219,-54.1162244001474,439.732163952611,-9.70183349753891,417.515475325092,-7.47197478345802,"ERK-1-3-A","ERK-1-3-A","gleon",20.9,17.6,101.325,0.14,0.035,0,492.700132786835,32.2456820113751,123.962240354719,11.3709908007229,18.800636872078,1.23044285529074,0.18964989761643,0.0173964848891371,118.007633705841,6215.85950027255,-11.5015375231526,0.411693141297601,-49.869146847874,0.578736912250962
"22","ERK-1-4-A","ERK","ERKEN","1","4","A",10.4442479010148,-51.2039717021872,1.99428961271219,-54.1162244001474,425.410290291429,-10.1708039711645,417.515475325092,-7.47197478345802,"ERK-1-4-A","ERK-1-4-A","gleon",20.7,17.5,101.325,0.14,0.035,0,470.387791378215,31.1526044926852,88.044474182931,8.50594921941004,18.0525201744905,1.19557316622603,0.135232511882261,0.0130647708394944,112.663558401507,4414.82890056237,-12.1514283851252,0.42645509053762,-50.2737261488899,0.608716876606005
"23","ERK-1-5-A","ERK","ERKEN","1","5","A",9.50874482798866,-51.0422844197734,1.99428961271219,-54.1162244001474,418.654685108719,-9.92964586917045,417.515475325092,-7.47197478345802,"ERK-1-5-A","ERK-1-5-A","gleon",20.2,17.3,101.325,0.14,0.035,0,456.665018686359,30.0746806786261,77.8442630363597,7.6552315046069,17.7805339831418,1.17097622974646,0.120762189750077,0.0118757951258181,109.376788568324,3903.3579947545,-11.8458454555928,0.423865034738188,-50.0023072875114,0.621872891284856
"24","ERK-1-6-A","ERK","ERKEN","1","6","A",9.24425566308769,-51.4124985491281,1.99428961271219,-54.1162244001474,416.259036216748,-10.1666573317064,417.515475325092,-7.47197478345802,"ERK-1-6-A","ERK-1-6-A","gleon",20.2,17.2,101.325,0.14,0.035,0,454.573706076525,30.1084276924936,75.2225036054613,7.38709023536193,17.6991074376282,1.17229019053248,0.116694974035987,0.0114598193612166,108.875893934848,3771.89466996022,-12.1654819908972,0.427030590496637,-50.4360410039072,0.617311702750502
"25","ERK-2-1-A","ERK","ERKEN","2","1","A",14.8983686462124,-48.6713554090467,2.05094842625123,-51.7343162753153,226.075832664663,-9.0757018015803,406.738451906995,-7.1628949596904,"ERK-2-1-A","ERK-2-1-A","gleon",24.2,20.6,101.325,0.14,0.035,0,178.227351868542,17.007465970721,139.574670997462,12.7776680188062,6.20296429343757,0.59192207611349,0.200593368406601,0.0183637579079104,43.818663082608,6805.37205182579,-11.9057338032613,0.62582703194081,-47.9082786765952,0.569059487995403
"26","ERK-2-2-A","ERK","ERKEN","2","2","A",14.6893647145876,-48.5181127769588,2.05094842625123,-51.7343162753153,280.16894360165,-9.24453671303041,406.738451906995,-7.1628949596904,"ERK-2-2-A","ERK-2-2-A","gleon",25.9,21.4,101.325,0.14,0.035,0,264.430411565882,21.4281780483954,140.971280838385,12.8489592432337,8.79383414208132,0.712610333314966,0.196553954455562,0.0179150940168536,65.0123956380567,6873.46785682247,-11.6646406486851,0.524339874887048,-47.7252837836946,0.571723616592847
"27","ERK-2-3-A","ERK","ERKEN","2","3","A",13.7958139126699,-50.2331520392808,2.05094842625123,-51.7343162753153,276.686685804089,-9.31920630766502,406.738451906995,-7.1628949596904,"ERK-2-3-A","ERK-2-3-A","gleon",24,20.7,101.325,0.14,0.035,0,252.070946804821,20.6260163198391,127.252114630301,11.7677827948219,8.82081751317205,0.721774279373359,0.183552174651657,0.0169741943314125,61.9737193823168,6204.54970985767,-11.7888696449199,0.524594423584742,-49.6712733538198,0.583212454952721
"28","ERK-2-4-A","ERK","ERKEN","2","4","A",12.3187837442637,-50.4201999707612,2.05094842625123,-51.7343162753153,261.267034568458,-9.76865726740746,406.738451906995,-7.1628949596904,"ERK-2-4-A","ERK-2-4-A","gleon",24,20.8,101.325,0.14,0.035,0,228.266395050643,19.532494646662,111.464189113328,10.4432949259651,7.98781549660469,0.68350824654387,0.160779208793306,0.0150637142632839,56.1211741797254,5434.76314112222,-12.6970070305764,0.556117245469579,-49.8585414377536,0.584595512808459
"29","ERK-2-5-A","ERK","ERKEN","2","5","A",8.84987911635025,-52.1406002373005,2.05094842625123,-51.7343162753153,372.730612033892,-9.62463215784729,406.738451906995,-7.1628949596904,"ERK-2-5-A","ERK-2-5-A","gleon",24,20.2,101.325,0.14,0.035,0,401.263368429507,27.7614656889153,74.7894590869688,7.60646758080332,14.0415664419194,0.971467857934933,0.10787850478019,0.0109717914702638,98.6539056113781,3646.57921816545,-11.7092695782608,0.449067371249188,-51.9175614991418,0.630971820994406
"30","ERK-2-6-A","ERK","ERKEN","2","6","A",11.1881083663842,-51.3030606800542,2.05094842625123,-51.7343162753153,395.952661561281,-10.0266168858532,406.738451906995,-7.1628949596904,"ERK-2-6-A","ERK-2-6-A","gleon",23.9,20.2,101.325,0.14,0.035,0,435.103722030038,29.7502836416023,99.5693255477809,9.47895732341908,15.2673027636582,1.0439041650618,0.143884921751277,0.0136977831803164,106.973835394724,4854.79421487823,-12.1802756588056,0.435327098442225,-50.8879368384237,0.597658621766928
"31","ERK-3-1-A","ERK","ERKEN","3","1","A",13.8146899599458,-44.8447270386601,1.9723392252829,-52.1717828732298,381.001521918178,-10.1849064316542,408.403841323565,-7.13750461000515,"ERK-3-1-A","ERK-3-1-A","gleon",22.8,20.7,101.325,0.14,0.035,0,393.814932497878,27.6200175209807,125.383036158195,11.4906645364159,14.2432453155198,0.998943038231294,0.184928814967376,0.0169477071302214,96.4278228190981,6357.07258421586,-12.487983771832,0.448753820142834,-43.4344281200908,0.590778733354997
"32","ERK-3-2-A","ERK","ERKEN","3","2","A",14.9103319124093,-43.9351010409689,1.9723392252829,-52.1717828732298,350.895765742591,-9.34979261941761,408.403841323565,-7.13750461000515,"ERK-3-2-A","ERK-3-2-A","gleon",22.8,20.7,101.325,0.14,0.035,0,350.361860314893,25.3371535168775,136.793312557449,12.342345927509,12.6716625345175,0.916377880464994,0.201757956752569,0.0182038613533964,85.788091311637,6935.58748941009,-11.4306011573207,0.455640538684686,-42.4919844747733,0.580876767315734
"33","ERK-3-3-A","ERK","ERKEN","3","3","A",15.5287636243918,-42.0633834597939,1.9723392252829,-52.1717828732298,422.479994925877,-9.80337743585567,408.403841323565,-7.13750461000515,"ERK-3-3-A","ERK-3-3-A","gleon",23.3,20.6,101.325,0.14,0.035,0,461.310869119245,31.0242126818437,144.65649320877,13.0819300416687,16.4552706208687,1.10665464365454,0.211368243002281,0.0191149702764856,112.954586231172,7334.2603216757,-11.8138929076651,0.422257937742467,-40.4289873247358,0.579512784400457
"34","ERK-3-4-A","ERK","ERKEN","3","4","A",13.6453982184159,-42.3911773098267,1.9723392252829,-52.1717828732298,427.751994741287,-10.3091751287446,408.403841323565,-7.13750461000515,"ERK-3-4-A","ERK-3-4-A","gleon",21.8,20.6,101.325,0.14,0.035,0,449.829812600468,30.0624772889407,121.350582406492,11.2117587702517,16.7310874497077,1.11815162620815,0.182425006694022,0.0168545146480114,110.143384338073,6152.62226958376,-12.4753439967052,0.428693030512679,-40.5988377772914,0.593932360602708
"35","ERK-3-5-A","ERK","ERKEN","3","5","A",12.4788516782217,-44.1884007276798,1.9723392252829,-52.1717828732298,413.861829844975,-9.57619103099014,408.403841323565,-7.13750461000515,"ERK-3-5-A","ERK-3-5-A","gleon",22.7,20.6,101.325,0.14,0.035,0,441.281167288204,30.0990565971703,111.320553574675,10.2623292977924,16.0043914391058,1.09163299827455,0.164497719684136,0.0151645829447132,108.05019998296,5644.08759647864,-11.5323122189082,0.432917221031314,-42.5346875778203,0.600305741794601
"36","ERK-3-6-A","ERK","ERKEN","3","6","A",11.8504586443054,-42.9183910043842,1.9723392252829,-52.1717828732298,395.82270208197,-10.2513319657763,408.403841323565,-7.13750461000515,"ERK-3-6-A","ERK-3-6-A","gleon",22.5,20.6,101.325,0.14,0.035,0,412.951955902421,28.6133102967702,104.389584668311,9.76542806862325,15.0606328676295,1.04354648367145,0.154840683392935,0.0144850232001086,101.113631684784,5292.67903462892,-12.5145587393789,0.437428532372929,-40.9584093300417,0.610898218483756
"37","ITA-1-1-A","ITA","ITASCA","1","1","A",201.064272017135,-49.5584527571771,2.06247054577519,-50.8642997918057,407.376980645364,-9.8481305199052,402.061861145816,-7.00574696526045,"ITA-1-1-A","ITA-1-1-A","gleon",22.1,23.1,101.325,0.14,0.035,0,398.159963315558,27.6561958144408,2022.96973081492,161.777201128887,14.684694372972,1.01999904679583,3.02362502494783,0.241799759209582,99.0295279887681,98084.7816207035,-12.0005457778829,0.436428277471101,-49.2162387862395,0.501597747569353
"38","ITA-1-2-A","ITA","ITASCA","1","2","A",109.917626420725,-51.8703389609896,2.06247054577519,-50.8642997918057,450.257243813213,-9.91139174477875,402.061861145816,-7.00574696526045,"ITA-1-2-A","ITA-1-2-A","gleon",21.2,23.1,101.325,0.14,0.035,0,444.343441157027,29.5766794635137,1078.38565525515,88.0302433503773,16.8107047691723,1.11896515276314,1.64013217128977,0.133886456539761,110.516187705721,52286.1117926821,-11.9495968880213,0.416658287183271,-51.5576861275612,0.5111873918749
"39","ITA-1-3-A","ITA","ITASCA","1","3","A",116.888722107396,-51.7737365904271,2.06247054577519,-50.8642997918057,456.950488147708,-9.97486002353021,402.061861145816,-7.00574696526045,"ITA-1-3-A","ITA-1-3-A","gleon",21.6,23.1,101.325,0.14,0.035,0,458.293759236334,30.2192195595793,1156.93416040065,94.0042850836783,17.1425569078532,1.13035510645882,1.74594474400232,0.141863118121351,113.985882155115,56094.5785514632,-12.0150299528496,0.419199749044366,-51.4584676686071,0.504222374429981
"40","ITA-1-4-A","ITA","ITASCA","1","4","A",116.940092668125,-51.4473332635,2.06247054577519,-50.8642997918057,450.952697017187,-9.89568582260937,402.061861145816,-7.00574696526045,"ITA-1-4-A","ITA-1-4-A","gleon",21.5,23.1,101.325,0.14,0.035,0,449.069207600186,29.6089757726332,1155.20714001967,93.4120245392221,16.8451854517169,1.11067220705425,1.74672448529935,0.141243128467215,111.691570625576,56010.8430341479,-11.9268001662133,0.417143124929783,-51.1267730372678,0.510630146709363
"41","ITA-1-5-A","ITA","ITASCA","1","5","A",120.879475697824,-51.3594092147927,2.06247054577519,-50.8642997918057,452.883758603835,-10.5142018766891,402.061861145816,-7.00574696526045,"ITA-1-5-A","ITA-1-5-A","gleon",22.1,23.1,101.325,0.14,0.035,0,459.335347355625,30.542208891551,1208.65983274841,97.9559876847219,16.9409277980931,1.12643923139112,1.80651942600998,0.146409593379182,114.244943812026,58602.5257536043,-12.7412558566822,0.423794592038668,-51.0371600956675,0.509491404123409
"42","ITA-1-6-A","ITA","ITASCA","1","6","A",128.118390143005,-51.5141595042331,2.06247054577519,-50.8642997918057,467.062189641917,-10.2674434620477,402.061861145816,-7.00574696526045,"ITA-1-6-A","ITA-1-6-A","gleon",21,23.1,101.325,0.14,0.035,0,463.711164558642,30.5577768386509,1255.09665274451,101.988560309104,17.643896706441,1.16270277562284,1.91639715478012,0.155725526292414,115.333288075903,60854.0400887413,-12.3719035534748,0.408538356196208,-51.1937496807937,0.507347513170342
"43","ITA-2-1-A","ITA","ITASCA","2","1","A",79.9240523825699,-38.9240373825907,2.07472434461935,-51.5770220286391,424.46264779316,-8.75608739437617,420.804864298729,-7.52066355108698,"ITA-2-1-A","ITA-2-1-A","gleon",24.4,25.6,101.325,0.14,0.035,0,412.47413928007,29.0657500572543,817.45627564952,67.0543617992659,14.2780301384517,1.00612769575936,1.17057073224619,0.096019659680637,98.0202878518188,39400.7173902178,-10.3262167989509,0.445464698349368,-38.2890998239913,0.512377347895426
"44","ITA-2-2-A","ITA","ITASCA","2","2","A",72.8048857387046,-35.9744311244093,2.07472434461935,-51.5770220286391,448.762932030674,-8.85931608555492,420.804864298729,-7.52066355108698,"ITA-2-2-A","ITA-2-2-A","gleon",24.9,25.6,101.325,0.14,0.035,0,451.593029645286,31.2520956395297,749.602920362096,61.3939939083305,15.4230133492218,1.06733597863152,1.06379029088481,0.0871265744359358,107.316494641255,36130.2417020428,-10.4309879463032,0.429178362907138,-35.2306636976663,0.519356729012877
"45","ITA-2-3-A","ITA","ITASCA","2","3","A",68.0184171297668,-36.5244653717668,2.07472434461935,-51.5770220286391,430.735275485026,-8.69760187705544,420.804864298729,-7.52066355108698,"ITA-2-3-A","ITA-2-3-A","gleon",26.3,25.6,101.325,0.14,0.035,0,442.861795822584,31.1633677672173,716.434007585301,58.3350385017498,14.5735844342121,1.02551625742828,0.991998007294253,0.0807726061807296,105.241605645556,34531.5274987407,-10.2347283674597,0.439756888019775,-35.7663950984968,0.515853510001222
"46","ITA-2-4-A","ITA","ITASCA","2","4","A",71.6913817968342,-35.7145981020622,2.07472434461935,-51.5770220286391,462.255798764819,-8.82212767257565,420.804864298729,-7.52066355108698,"ITA-2-4-A","ITA-2-4-A","gleon",27.6,25.6,101.325,0.14,0.035,0,504.724249775026,34.0485429393679,773.11973982132,63.6488432791396,16.0587715866462,1.08331980118876,1.04708883574005,0.0862039730362572,119.942589213209,37263.7329786171,-10.3608876720904,0.423188061717489,-34.9572304740891,0.516431133890341
"47","ITA-2-5-A","ITA","ITASCA","2","5","A",69.3899208019222,-37.7729618720985,2.07472434461935,-51.5770220286391,457.424119817772,-9.1855599971171,420.804864298729,-7.52066355108698,"ITA-2-5-A","ITA-2-5-A","gleon",27,25.6,101.325,0.14,0.035,0,489.931937458524,33.7577554093952,740.111375590245,60.2205896200991,15.8311120572297,1.09081031022177,1.0125692025995,0.0823896462381289,116.427346502991,35672.7570826298,-10.86234397253,0.428175836318684,-37.05837210183,0.510690492359904
"48","ITA-2-6-A","ITA","ITASCA","2","6","A",77.3386101351649,-38.0917065595464,2.07472434461935,-51.5770220286391,480.289747758144,-9.00852838730515,420.804864298729,-7.52066355108698,"ITA-2-6-A","ITA-2-6-A","gleon",27.4,25.6,101.325,0.14,0.035,0,528.707113845008,35.6228439296023,832.862807283766,68.7881194794606,16.9084969898317,1.13924842995303,1.13179166187141,0.0934773643171486,125.641873158025,40143.2994915076,-10.5870625303922,0.427144284608421,-37.4255742808637,0.515710019900445
"49","ITA-3-1-A","ITA","ITASCA","3","1","A",341.489813527552,-43.9502720778646,2.03906167690842,-52.6905846625816,635.336651921927,-9.98625877461875,412.493988144134,-7.52705689740098,"ITA-3-1-A","ITA-3-1-A","gleon",21,21.7,101.325,0.14,0.035,0,703.504806174716,42.5238931303585,3399.74387723728,271.838669855654,26.7678828575234,1.61800542081384,5.19104204371174,0.415068315520902,170.549105294814,166730.801512189,-11.5993960680416,0.386198147629119,-43.5729716838032,0.504069947344743
"50","ITA-3-2-A","ITA","ITASCA","3","2","A",355.267355147292,-40.3346112200417,2.03906167690842,-52.6905846625816,595.94026433427,-9.73524296902292,412.493988144134,-7.52705689740098,"ITA-3-2-A","ITA-3-2-A","gleon",20.9,21.7,101.325,0.14,0.035,0,648.760442826884,40.0801445882765,3530.69364929477,283.968780547632,24.755644845409,1.52939322326219,5.40161009665263,0.434443988774447,157.277551060985,173152.861891256,-11.333194834106,0.382976009307559,-39.9403504279876,0.503467198330279
"51","ITA-3-3-A","ITA","ITASCA","3","3","A",315.537030093627,-35.3065421138186,2.03906167690842,-52.6905846625816,737.273476735388,-10.3597715665969,412.493988144134,-7.52705689740098,"ITA-3-3-A","ITA-3-3-A","gleon",20.5,21.7,101.325,0.14,0.035,0,828.364906742979,48.5186048453623,3109.0719500762,252.088644812397,31.9744808804383,1.87279445368263,4.79439457009797,0.388737362556788,200.818661738539,152475.620786033,-11.9542777491973,0.368764640497328,-34.8746807834851,0.495327641544057
"52","ITA-3-4-A","ITA","ITASCA","3","4","A",295.99399768684,-33.3880331256892,2.03906167690842,-52.6905846625816,753.758452291346,-10.2342656677378,412.493988144134,-7.52705689740098,"ITA-3-4-A","ITA-3-4-A","gleon",19.9,21.7,101.325,0.14,0.035,0,835.528671895205,49.1956227723589,2880.54073670673,231.455130741823,32.8164792583014,1.93222230261276,4.49571005902655,0.361236050658657,202.555357389416,141267.955223117,-11.794119158373,0.367883765821945,-32.9374160579096,0.50977695123953
"53","ITA-3-5-A","ITA","ITASCA","3","5","A",309.229752700833,-33.21264574525,2.03906167690842,-52.6905846625816,744.819867645938,-10.161846734124,412.493988144134,-7.52705689740098,"ITA-3-5-A","ITA-3-5-A","gleon",19.9,21.7,101.325,0.14,0.035,0,823.904525348285,48.3658229802984,3010.15273206625,242.085529092886,32.3599257289208,1.89963083258824,4.69799775587562,0.377827098370405,199.737341398633,147624.408136108,-11.7155965140904,0.364635355285049,-32.7661734765393,0.500421659880759
"54","ITA-3-6-A","ITA","ITASCA","3","6","A",301.714756360834,-32.591215741,2.03906167690842,-52.6905846625816,794.802627005522,-10.2525881867771,412.493988144134,-7.52705689740098,"ITA-3-6-A","ITA-3-6-A","gleon",19.9,21.7,101.325,0.14,0.035,0,888.904404262417,52.3189902442666,2936.56163962634,234.032935689836,34.9128808218194,2.05489663720552,4.58314285716826,0.365259275703633,215.495117458976,144015.341609416,-11.787272887671,0.367300486485375,-32.1380155538279,0.500767573983331
