"","SampleName","lake","lakename","campaign","location","duplicate","pCH4.meas","iso.CH4.meas","pCH4.head","iso.CH4.head","pCO2.meas","iso.CO2.meas","pCO2.head","iso.CO2.head","ID","ID.rep","Sample.type","temp.in","temp.sam","atm","vol.tot","vol.head","sal","pCO2.insitu","pCO2.insitu.error","pCH4.insitu","pCH4.insitu.error","conc.CO2.insitu","conc.CO2.insitu.error","conc.CH4.insitu","conc.CH4.insitu.error","sat.CO2.insitu","sat.CH4.insitu","iso.CO2.insitu","iso.CO2.insitu.error","iso.CH4.insitu","iso.CH4.insitu.error"
"1","BUF-1-1-A","BUF","BUFFALO","1","1","A",31.0877249356598,-54.7521721895979,1.95887933570632,-53.0343787127075,218.056315900722,-9.00445863860051,405.265617668351,-7.34401731882408,"BUF-1-1-A","BUF-1-1-A","gleon",28.4,25.9,101.325,0.14,0.035,0,151.038809772916,16.5719035113979,328.475584460906,28.0915003382789,4.70862622748381,0.516628141008375,0.439023720375119,0.0375456672363358,37.2690904898128,16768.546100491,-12.0195495243787,0.703938208316707,-54.5262863860874,0.528735158495822
"2","BUF-1-2-A","BUF","BUFFALO","1","2","A",22.711121169875,-53.8019516743125,1.95887933570632,-53.0343787127075,217.906651142812,-7.4043086174427,405.265617668351,-7.34401731882408,"BUF-1-2-A","BUF-1-2-A","gleon",28.6,25.7,101.325,0.14,0.035,0,152.761340047951,16.4669295332408,235.596411985888,20.5670058443168,4.73832112961533,0.510767973904587,0.313858407347378,0.0273990917085279,37.6941278480139,12027.1018072146,-8.54903244207329,0.678301256750553,-53.5370700315872,0.53786522408138
"3","BUF-1-3-A","BUF","BUFFALO","1","3","A",21.3300771956995,-53.5370891171554,1.95887933570632,-53.0343787127075,244.375094183524,-7.57316273047616,405.265617668351,-7.34401731882408,"BUF-1-3-A","BUF-1-3-A","gleon",28.8,24.2,101.325,0.14,0.035,0,204.366623328139,19.2322817588212,222.382310884616,19.3308949318703,6.30715828309512,0.593546261236616,0.295292733149347,0.0256687358627936,50.4278217589586,11352.5272757258,-8.8550891761665,0.58599923730792,-53.2526474650246,0.546254056833287
"4","BUF-1-4-A","BUF","BUFFALO","1","4","A",22.7241298396218,-52.3176035386321,1.95887933570632,-53.0343787127075,233.262713385544,-9.13954124754508,405.265617668351,-7.34401731882408,"BUF-1-4-A","BUF-1-4-A","gleon",28.5,25.1,101.325,0.14,0.035,0,179.482561089456,17.6275364967502,236.037761058697,20.5671030494077,5.58122696522854,0.548149532907419,0.314960125811868,0.0274439875000179,44.2876358774495,12049.6324993692,-11.9923898672723,0.645843315619032,-51.9268855016588,0.543729842578664
"5","BUF-1-5-A","BUF","BUFFALO","1","5","A",23.7799110415855,-50.838227817772,1.95887933570632,-53.0343787127075,245.778090122746,-8.94899548056683,405.265617668351,-7.34401731882408,"BUF-1-5-A","BUF-1-5-A","gleon",28.5,24.4,101.325,0.14,0.035,0,203.574409778144,19.057291630554,248.77595072084,21.4824448247165,6.33039209150781,0.592609495245947,0.331957498607683,0.0286653859721058,50.2323416798557,12699.9119438431,-11.4317092134954,0.602524437475801,-50.3313022761918,0.544375279599638
"6","BUF-2-1-A","BUF","BUFFALO","2","1","A",13.4612113234335,-51.1844514404482,2.00665979257376,-54.4203595017623,269.467028848769,-9.32303524655221,418.744314558465,-7.57448894548416,"BUF-2-1-A","BUF-2-1-A","gleon",23.6,22.6,101.325,0.14,0.035,0,219.060930687541,19.1466831687021,121.990527097376,11.3155888922382,7.74990832506152,0.677368797898928,0.177260953896433,0.0164423593262854,52.3137683477623,6079.2829730699,-11.7080559657129,0.56600759064331,-50.3513040813385,0.577143284619791
"7","BUF-2-2-A","BUF","BUFFALO","2","2","A",7.78041149328029,-49.9556024958078,2.00665979257376,-54.4203595017623,408.255942080394,-9.35292212532858,418.744314558465,-7.57448894548416,"BUF-2-2-A","BUF-2-2-A","gleon",23.4,22.4,101.325,0.14,0.035,0,415.680369944493,28.9991978629561,62.3400203022945,6.4462297381239,14.7868499022532,1.03157814775457,0.0909205057038824,0.00940157646455016,99.2683017995832,3106.65617226209,-11.133300236224,0.43508201036151,-48.2712182916459,0.673814294930245
"8","BUF-2-3-A","BUF","BUFFALO","2","3","A",7.38066187882955,-49.8236428963793,2.00665979257376,-54.4203595017623,400.153907158276,-9.7897158721409,418.744314558465,-7.57448894548416,"BUF-2-3-A","BUF-2-3-A","gleon",23.5,22.4,101.325,0.14,0.035,0,405.332226862975,28.3665117523614,58.273340114582,6.14798080941445,14.3791776416703,1.00630318669337,0.0848320325118335,0.00894998822584852,96.7970698994128,2903.99699691197,-11.7645524626631,0.441262383746742,-47.9991503533029,0.683599049618385
"9","BUF-2-4-A","BUF","BUFFALO","2","4","A",6.88429257210446,-49.7693895445099,2.00665979257376,-54.4203595017623,429.549491607673,-9.8657873896198,418.744314558465,-7.57448894548416,"BUF-2-4-A","BUF-2-4-A","gleon",23.2,22.3,101.325,0.14,0.035,0,444.582737711147,29.9884341294893,52.8139135632486,5.70285694303211,15.9023421023211,1.07266049306193,0.0773141558754091,0.00834839800502039,106.170453485422,2631.93161883754,-11.7839189264168,0.430270652633055,-47.7796597881824,0.710460893116323
"10","BUF-2-5-A","BUF","BUFFALO","2","5","A",5.36092098348259,-48.006619443005,2.00665979257376,-54.4203595017623,487.873924117214,-10.3472676023393,418.744314558465,-7.57448894548416,"BUF-2-5-A","BUF-2-5-A","gleon",22.5,22,101.325,0.14,0.035,0,520.845185542779,34.1465773463176,36.5358720260348,4.43543421883838,18.9955708120819,1.24534841825649,0.0541935233370597,0.00657906311028586,124.382628595679,1820.73075671554,-12.2783312059499,0.408955650781485,-44.408047573024,0.891692990919906
"11","BUF-3-1-A","BUF","BUFFALO","3","1","A",29.0208329561302,-49.7140789534844,1.96819920183482,-51.8058853538455,253.258293634219,-9.80330122928647,430.254744385476,-8.0924292393835,"BUF-3-1-A","BUF-3-1-A","gleon",25.9,24.8,101.325,0.14,0.035,0,188.222993008247,18.3487121341274,294.123064402712,24.7792073099642,6.25949856689713,0.610200355824465,0.410090984923504,0.0345492440451848,43.746872164555,14943.7650481984,-12.4849528589251,0.632724096807595,-49.2472020924806,0.533123211230263
"12","BUF-3-2-A","BUF","BUFFALO","3","2","A",16.2658722829223,-49.4786167100881,1.96819920183482,-51.8058853538455,272.617447338549,-8.44996257068446,430.254744385476,-8.0924292393835,"BUF-3-2-A","BUF-3-2-A","gleon",24.7,23.3,101.325,0.14,0.035,0,220.300973676886,19.5706610889185,154.248507824069,13.7099241056304,7.56436470426373,0.671988033049964,0.21968647121081,0.0195261846602057,51.2024507693779,7837.03741370657,-9.81309691240499,0.557200834566283,-48.8629077160726,0.56281626090383
"13","BUF-3-3-A","BUF","BUFFALO","3","3","A",13.4745487851782,-50.071178100604,1.96819920183482,-51.8058853538455,274.448362108317,-9.16983278757673,430.254744385476,-8.0924292393835,"BUF-3-3-A","BUF-3-3-A","gleon",24.6,23.8,101.325,0.14,0.035,0,218.56517565432,19.5520809578721,123.991923989974,11.5165811995169,7.52500720013127,0.673160989828659,0.176912049113519,0.016431892604179,50.7990158171276,6299.76497675564,-11.0949604254135,0.569078102805592,-49.47716978064,0.580600516135103
"14","BUF-3-4-A","BUF","BUFFALO","3","4","A",10.5582257686139,-48.8194396540693,1.96819920183482,-51.8058853538455,289.797241948119,-8.70409040363762,430.254744385476,-8.0924292393835,"BUF-3-4-A","BUF-3-4-A","gleon",24.5,23.1,101.325,0.14,0.035,0,245.305936452363,20.6648728197467,93.238038132045,8.90426766131747,8.46848754772609,0.713395772969207,0.13327255855763,0.0127275793987121,57.0141153940622,4737.22568554675,-10.2155038912527,0.532905774082876,-47.8846732046554,0.605087612944376
"15","BUF-3-5-A","BUF","BUFFALO","3","5","A",6.8632888331931,-48.9719799864729,1.96819920183482,-51.8058853538455,345.499198780936,-9.15968577678571,430.254744385476,-8.0924292393835,"BUF-3-5-A","BUF-3-5-A","gleon",24.1,21.9,101.325,0.14,0.035,0,333.755037055198,24.9299112149854,53.9608847470366,5.87052574412192,11.6474899242167,0.870012007160017,0.0776927216132403,0.0084523655329145,77.5714948900548,2741.63736560469,-10.7926830290764,0.47780554036876,-47.6535599260539,0.6841657248876
"16","CRO-1-1-A","CRO","CROSS","1","1","A",146.86765938772,-44.0932966028549,1.99115326188318,-51.6830528972278,171.699904254249,-9.92977525256892,435.771619094344,-7.58301026827013,"CRO-1-1-A","CRO-1-1-A","gleon",32.8,31.1,101.325,0.14,0.035,0,52.8903959098822,13.0527770351795,1699.98795558032,139.792092883756,1.48106547004788,0.365510921642132,2.12241111802404,0.174528467201435,12.1371823203639,85377.0519890825,-20.2013287899562,3.77720303441792,-43.6682283457903,0.503594881298766
"17","CRO-1-2-A","CRO","CROSS","1","2","A",78.6057688643316,-38.1153484320311,1.99115326188318,-51.6830528972278,189.197916420985,-8.71537445404351,435.771619094344,-7.58301026827013,"CRO-1-2-A","CRO-1-2-A","gleon",31.9,30.8,101.325,0.14,0.035,0,79.0743933584406,14.2018716170107,889.226853427234,72.7019689227374,2.26196163822494,0.406251473129321,1.12506397033695,0.0919836884055838,18.1458337105063,44658.8854032374,-12.6846464728747,1.29201247918055,-37.4644298901457,0.518192593834136
"18","CRO-1-3-A","CRO","CROSS","1","3","A",73.2769472920829,-36.6975443419378,1.99115326188318,-51.6830528972278,213.658366417358,-9.81721299968498,435.771619094344,-7.58301026827013,"CRO-1-3-A","CRO-1-3-A","gleon",31.3,30.8,101.325,0.14,0.035,0,113.968188599768,15.5999714853261,820.062230178176,66.5853054808195,3.3073525420013,0.45271058512942,1.04698990567061,0.0850107956920109,26.1531920864021,41185.2892430079,-14.805183354522,1.05576623466081,-35.9866586633129,0.513902072546342
"19","CRO-1-4-A","CRO","CROSS","1","4","A",70.7725637758084,-36.1721457273368,1.99115326188318,-51.6830528972278,202.581711151865,-9.68179697417876,435.771619094344,-7.58301026827013,"CRO-1-4-A","CRO-1-4-A","gleon",31.6,30.8,101.325,0.14,0.035,0,98.3622263323445,15.0868439046408,794.926282369859,64.7238875025284,2.83395836239589,0.434673848284572,1.01029747790812,0.0822596783556699,22.5719670631072,39922.9078739041,-15.0486687819357,1.22613226599904,-35.4335878562335,0.517914908997033
"20","CRO-1-5-A","CRO","CROSS","1","5","A",61.7881093949744,-34.3081395071897,1.99115326188318,-51.6830528972278,224.118295778616,-9.07094650054256,435.771619094344,-7.58301026827013,"CRO-1-5-A","CRO-1-5-A","gleon",31.7,30.7,101.325,0.14,0.035,0,131.146871055565,16.8680285061805,692.700011911173,57.3262329631595,3.76949084529638,0.484829554227842,0.879049436790679,0.0727480755494177,30.0953217945045,34788.8846715915,-12.4247407723348,0.869132204428903,-33.4519794119869,0.51322486658023
"21","CRO-1-6-A","CRO","CROSS","1","6","A",55.4980316513093,-34.2243124548969,1.99115326188318,-51.6830528972278,202.976810824536,-10.5625045016412,435.771619094344,-7.58301026827013,"CRO-1-6-A","CRO-1-6-A","gleon",31.8,30.7,101.325,0.14,0.035,0,99.8937848015179,15.0557963965554,620.979556578031,50.8267780688961,2.86434051062076,0.431707814695357,0.786851578350336,0.0644032965696314,22.9234260388791,31186.9291262253,-17.6767474064394,1.4051262300015,-33.3036645781196,0.518427229568349
"22","CRO-2-1-A","CRO","CROSS","2","1","A",114.828596354145,-38.7768353399119,2.2591206313032,-49.9835029053768,131.398378009326,-8.95318736733109,431.951461655468,-7.4945017259931,"CRO-2-1-A","CRO-2-1-A","gleon",29.3,29.3,101.325,0.14,0.035,0,-1.04889977163845,9.36514015299767,1262.65873786719,103.520253472357,-0.0319684561724953,0.285431535620146,1.66317722115803,0.136357134624161,-0.242828156575395,55891.603147319,254.705576846367,1762.93155104871,-38.2423854391902,0.506792220768185
"23","CRO-2-2-A","CRO","CROSS","2","2","A",77.6218884849793,-34.6697953856995,2.2591206313032,-49.9835029053768,184.015274363471,-8.41936053474871,431.951461655468,-7.4945017259931,"CRO-2-2-A","CRO-2-2-A","gleon",29.6,29.6,101.325,0.14,0.035,0,74.0461060758927,13.3533731315253,848.990195981665,69.587343583291,2.24001105238564,0.403960518471943,1.11295263601986,0.0912229821277181,17.1422283865202,37580.5605162357,-11.8709811601853,1.28505426821081,-33.922712811033,0.513354480672614
"24","CRO-2-3-A","CRO","CROSS","2","3","A",83.0029121345855,-34.442846804114,2.2591206313032,-49.9835029053768,209.563108066891,-8.17913006005907,431.951461655468,-7.4945017259931,"CRO-2-3-A","CRO-2-3-A","gleon",29.6,29.6,101.325,0.14,0.035,0,110.925379754251,15.1551255396227,909.448165760101,74.2655477227576,3.35566702704022,0.458466359787408,1.19220779956803,0.0973557026862141,25.6800565806921,40256.7332243553,-10.4202394703304,0.878923031862024,-33.7177206553936,0.511365378450881
"25","CRO-2-4-A","CRO","CROSS","2","4","A",105.877922272332,-34.277619079057,2.2591206313032,-49.9835029053768,205.642518346839,-8.31647872998342,431.951461655468,-7.4945017259931,"CRO-2-4-A","CRO-2-4-A","gleon",29.7,29.7,101.325,0.14,0.035,0,105.050022177295,14.9559909759313,1167.79199215104,94.0433924960992,3.17006240874622,0.451322368103169,1.52844640678141,0.123087233264402,24.319867277376,51692.3255876508,-10.8770283377225,0.935642976273603,-33.636241656559,0.511909222052937
"26","CRO-2-5-A","CRO","CROSS","2","5","A",86.7754209435802,-33.4342522684456,2.2591206313032,-49.9835029053768,198.246277096891,-10.4034353223824,431.951461655468,-7.4945017259931,"CRO-2-5-A","CRO-2-5-A","gleon",29.6,29.6,101.325,0.14,0.035,0,94.5891020346068,14.3725832353678,951.833822916574,79.2692532612152,2.86146895794341,0.434793225528413,1.24777172608332,0.103915127394829,21.8980858803188,42132.9348122281,-17.3540201963167,1.38146017621632,-32.7022193885167,0.508604796624267
"27","CRO-2-6-A","CRO","CROSS","2","6","A",75.4955357068135,-33.3214635130881,2.2591206313032,-49.9835029053768,209.55963894886,-9.53861382745906,431.951461655468,-7.4945017259931,"CRO-2-6-A","CRO-2-6-A","gleon",29.6,29.6,101.325,0.14,0.035,0,110.92037194988,14.9894027362696,825.099765392302,68.3853426073024,3.35551553308959,0.453452984597053,1.08163435010098,0.0896472629250031,25.6788972364567,36523.0503391195,-14.1279419942819,1.00799402024896,-32.5245181511411,0.510897958789405
"28","CRO-3-1-A","CRO","CROSS","3","1","A",131.548779587552,-36.7007293931041,2.00011481034329,-52.2314183951469,336.000788256302,-9.69424091291667,413.292994845502,-7.05991669753213,"CRO-3-1-A","CRO-3-1-A","gleon",25.3,25.3,101.325,0.14,0.035,0,304.865690160999,23.5554990510686,1382.93669205297,112.285791918321,10.3011460773183,0.795919791830453,1.94865435265114,0.15821852035591,73.7650272235958,69142.8654445895,-12.2090883662517,0.502626604691477,-36.1537580567489,0.505918270862844
"29","CRO-3-2-A","CRO","CROSS","3","2","A",124.49729100125,-34.1853847739739,2.00011481034329,-52.2314183951469,379.488807661771,-10.8652626436646,413.292994845502,-7.05991669753213,"CRO-3-2-A","CRO-3-2-A","gleon",24.9,24.9,101.325,0.14,0.035,0,365.998480649851,26.8167589283544,1300.95226169823,105.337840933241,12.4997488497362,0.915858314420267,1.846231314348,0.149488975300977,88.5566620326263,65043.8792298599,-13.6580177008844,0.469290577053554,-33.5889293538065,0.514081822457232
"30","CRO-3-3-A","CRO","CROSS","3","3","A",121.607961009375,-33.5841133564375,2.00011481034329,-52.2314183951469,392.698542545938,-10.2295217467927,413.292994845502,-7.05991669753213,"CRO-3-3-A","CRO-3-3-A","gleon",24.9,24.9,101.325,0.14,0.035,0,384.47985961644,27.5592233978717,1270.31399302366,104.806942110261,13.1309334247896,0.941215303286287,1.80275137068691,0.148735556393465,93.0283998063327,63512.053730837,-12.6671269919233,0.459633750139878,-32.9721393010479,0.511010464475802
"31","CRO-3-4-A","CRO","CROSS","3","4","A",103.509534861295,-33.4024998974249,2.00011481034329,-52.2314183951469,405.088530004871,-10.0864950175694,413.292994845502,-7.05991669753213,"CRO-3-4-A","CRO-3-4-A","gleon",24.97,24.97,101.325,0.14,0.035,0,401.80897177941,28.1223577781489,1079.39070535394,88.3360601152942,13.6970341850111,0.958646826984954,1.52988955554896,0.125204353788111,97.2213361442563,53966.4373151,-12.4085048844073,0.450715180124596,-32.7370773761289,0.505019089208135
"32","CRO-3-5-A","CRO","CROSS","3","5","A",71.1074276707513,-33.7527610026425,2.00011481034329,-52.2314183951469,385.597475999741,-10.6081010916176,413.292994845502,-7.05991669753213,"CRO-3-5-A","CRO-3-5-A","gleon",24.996,24.996,101.325,0.14,0.035,0,374.520040548236,27.1138974568216,735.734916416263,60.4934436373895,12.7579078900026,0.923626425402342,1.04232030235187,0.0857014436253221,90.6185309741917,36784.6341925735,-13.2517153164553,0.470764742865997,-32.9396373889386,0.512768739792386
"33","CRO-3-6-A","CRO","CROSS","3","6","A",43.6238873111959,-32.2479117519072,2.00011481034329,-52.2314183951469,264.155475224124,-10.6454917924871,413.292994845502,-7.05991669753213,"CRO-3-6-A","CRO-3-6-A","gleon",24.996,24.996,101.325,0.14,0.035,0,204.504624983555,18.6691972592326,443.933235834645,37.3326625289608,6.96638600380506,0.635960357862085,0.628923018705031,0.0528894187655635,49.4817544778381,22195.3876616938,-14.6213089815401,0.63712880617992,-31.0520206880865,0.528534741676272
"34","LCA-1-1-A","LCA","CARIOCA","1","1","A",119.21028520359,-47.3263360738359,1.87771946213536,-51.1390577089192,579.500200832,-7.67327459396616,410.780447035222,-6.67619282175529,"LCA-1-1-A","LCA-1-1-A","gleon",30.5,31,101.325,0.14,0.035,0,648.65258690631,41.7803383823302,1330.73297003023,108.572986559759,19.1928222095057,1.23622817916993,1.71998645617833,0.140331734912508,157.907366718137,70869.6371776919,-9.01119567909371,0.406033280682692,-46.9407435912515,0.51449885809614
"35","LCA-1-2-A","LCA","CARIOCA","1","2","A",156.034189864663,-46.1519079241191,1.87771946213536,-51.1390577089192,630.812597973523,-8.25125765222435,410.780447035222,-6.67619282175529,"LCA-1-2-A","LCA-1-2-A","gleon",31.5,32,101.325,0.14,0.035,0,724.735970665982,45.7187418082823,1767.11873159751,144.104525537021,20.9308595545449,1.32038784127177,2.24928337804603,0.183423959123907,176.429033050797,94109.8373442818,-9.71155862832443,0.395918676600286,-45.7664850961911,0.507805232362153
"36","LCA-1-3-A","LCA","CARIOCA","1","3","A",159.309168446667,-46.5192563623542,1.87771946213536,-51.1390577089192,640.451854739897,-8.24795674788491,410.780447035222,-6.67619282175529,"LCA-1-3-A","LCA-1-3-A","gleon",31.5,32,101.325,0.14,0.035,0,738.703755287124,46.622249422129,1804.62070943265,144.653749362748,21.3342585164104,1.34648174544836,2.29701790424404,0.184123040628701,179.829337208882,96107.0461175505,-9.69963076844876,0.392813662181063,-46.1389828342513,0.499808112061662
"37","LCA-1-4-A","LCA","CARIOCA","1","4","A",145.756203074167,-45.1037586705,1.87771946213536,-51.1390577089192,594.415540777396,-8.16029564458855,410.780447035222,-6.67619282175529,"LCA-1-4-A","LCA-1-4-A","gleon",31,32,101.325,0.14,0.035,0,663.93950272455,42.2973263110723,1636.91620898426,133.779162552572,19.4076575646262,1.23639581855865,2.09947634345664,0.171582507085594,161.628798915938,87175.7598508752,-9.62726323416175,0.400614001679024,-44.7019018078412,0.50189326110423
"38","LCA-1-5-A","LCA","CARIOCA","1","5","A",128.931720737969,-44.4906251991562,1.87771946213536,-51.1390577089192,496.072861463854,-8.01219651854896,410.780447035222,-6.67619282175529,"LCA-1-5-A","LCA-1-5-A","gleon",31,32,101.325,0.14,0.035,0,523.144042521865,35.4910385631992,1445.71909772666,117.043339103195,15.2920565692727,1.03744079124823,1.85425071136905,0.150117471045638,127.353686451636,76993.3489469496,-9.53874714256904,0.424355812407704,-44.0709997688757,0.502075334360918
"39","LCA-1-6-A","LCA","CARIOCA","1","6","A",132.429924852746,-44.6336542243782,1.87771946213536,-51.1390577089192,520.094804903419,-7.88818262663057,410.780447035222,-6.67619282175529,"LCA-1-6-A","LCA-1-6-A","gleon",32.5,32.5,101.325,0.14,0.035,0,571.611777453417,38.4962493775555,1516.08415631543,122.707138928555,16.1200636798193,1.08563541878906,1.90115994777181,0.153873976497187,139.152625588434,80740.716964787,-9.34540193231072,0.426720787983739,-44.2182606879835,0.504668296076382
"40","LCA-2-1-A","LCA","CARIOCA","2","1","A",124.474333385,-30.5732833121042,1.98599970868632,-50.4062195892865,529.219488035313,-6.90320982286615,424.207959871771,-6.75279762415662,"LCA-2-1-A","LCA-2-1-A","gleon",33,32.5,101.325,0.14,0.035,0,585.551090639967,39.0458327843611,1433.11143828942,117.826001746851,16.3202030919045,1.08826698663794,1.78401144336657,0.146675917745387,138.033970606531,72160.7073768092,-8.0019205265935,0.422208021437292,-29.9498514489572,0.506774497665158
"41","LCA-2-2-A","LCA","CARIOCA","2","2","A",124.029143370881,-29.399724412171,1.98599970868632,-50.4062195892865,515.918452655752,-6.96768235531503,424.207959871771,-6.75279762415662,"LCA-2-2-A","LCA-2-2-A","gleon",33,32.5,101.325,0.14,0.035,0,565.750246049441,38.480342570243,1427.9099938565,114.783649183539,15.7683233152732,1.07250591080969,1.77753641557568,0.142888639490053,133.366249473597,71898.8017778219,-8.09126354616349,0.422022671626128,-28.757797402015,0.506316638166042
"42","LCA-2-3-A","LCA","CARIOCA","2","3","A",116.204677095833,-30.0916438069011,1.98599970868632,-50.4062195892865,494.984857189219,-7.29490989925938,424.207959871771,-6.75279762415662,"LCA-2-3-A","LCA-2-3-A","gleon",33,32.5,101.325,0.14,0.035,0,534.587042680276,36.7550283827289,1336.49166627467,108.914465339122,14.8997572480095,1.02441876967432,1.66373414020337,0.135582375048984,126.020040463614,67295.6627550929,-8.54678913964089,0.436883355127936,-29.4393575996537,0.505487379305947
"43","LCA-2-4-A","LCA","CARIOCA","2","4","A",115.461545355773,-28.4161279004536,1.98599970868632,-50.4062195892865,345.357261350412,-6.73869404552475,424.207959871771,-6.75279762415662,"LCA-2-4-A","LCA-2-4-A","gleon",32.5,32.5,101.325,0.14,0.035,0,308.197007651893,25.4398473984258,1318.12923244964,106.609228374762,8.69148534939547,0.717430914202829,1.65292572465816,0.13368729842909,72.6523396083974,66371.0687712809,-7.77629548332408,0.521216259212047,-27.7349787743298,0.510569449645074
"44","LCA-2-5-A","LCA","CARIOCA","2","5","A",124.293765742604,-28.8367620790937,1.98599970868632,-50.4062195892865,310.66095316349,-6.40332916799167,424.207959871771,-6.75279762415662,"LCA-2-5-A","LCA-2-5-A","gleon",32.5,32.5,101.325,0.14,0.035,0,257.14924489569,22.6485243613548,1420.56951617699,116.080753368141,7.25188382472366,0.638712618178569,1.78138519285427,0.145564530894531,60.6186750888458,71529.1905614959,-7.17838853428603,0.563453062755722,-28.1871675953018,0.506226395854325
"45","LCA-2-6-A","LCA","CARIOCA","2","6","A",115.025957059741,-28.7300188823524,1.98599970868632,-50.4062195892865,274.260401974456,-6.47287853765234,424.207959871771,-6.75279762415662,"LCA-2-6-A","LCA-2-6-A","gleon",33,32.5,101.325,0.14,0.035,0,206.001296509589,20.5306741982541,1322.71991359547,108.626787319935,5.74157071854775,0.572221242322389,1.64659034822845,0.13522425853095,48.5613934665107,66602.2209273336,-7.24476361685531,0.62822937375263,-28.0525503429293,0.506506117688397
"46","LCA-3-1-A","LCA","CARIOCA","3","1","A",626.546249982774,-35.7123298570943,2.13880225649384,-50.7461102364557,1377.73206334503,-8.55631176233822,461.640881326231,-7.92742877279581,"LCA-3-1-A","LCA-3-1-A","gleon",29.5,29.8,101.325,0.14,0.035,0,1772.57356287801,99.3697441051129,7000.25793982931,564.299358880958,53.7564146185792,3.01356247014285,9.19134595350775,0.740925644940446,383.972398151924,327298.043499584,-9.68654800167458,0.352794355901692,-35.3354213214512,0.501148580746512
"47","LCA-3-2-A","LCA","CARIOCA","3","2","A",631.315026620052,-35.7083792742775,2.13880225649384,-50.7461102364557,1283.35575732827,-8.44738668708953,461.640881326231,-7.92742877279581,"LCA-3-2-A","LCA-3-2-A","gleon",29.8,30,101.325,0.14,0.035,0,1642.82534549604,91.9245904793525,7081.12309644586,572.705499747949,49.4525398965662,2.76712584853815,9.25335782691024,0.748391017417437,355.866521348028,331078.905258591,-9.56942801359865,0.349217749251099,-35.3318036027554,0.505479731894331
"48","LCA-3-3-A","LCA","CARIOCA","3","3","A",646.392543526667,-34.8723282389375,2.13880225649384,-50.7461102364557,1297.19236676875,-7.76608469985938,461.640881326231,-7.92742877279581,"LCA-3-3-A","LCA-3-3-A","gleon",30,30,101.325,0.14,0.035,0,1670.98007725368,94.4614660515145,7273.66736286195,584.047204763828,50.0524115369957,2.82949164837981,9.47503761401623,0.760808675655594,361.965359838406,340081.339486977,-8.80314411884586,0.350265540601454,-34.4943133818986,0.501932617123394
"49","LCA-3-4-A","LCA","CARIOCA","3","4","A",888.665920169268,-36.0695191230837,2.13880225649384,-50.7461102364557,1451.74164554974,-8.8941487923246,461.640881326231,-7.92742877279581,"LCA-3-4-A","LCA-3-4-A","gleon",29.5,30,101.325,0.14,0.035,0,1871.3746930025,104.657032241684,9929.24090218011,789.355469608697,56.7527328684875,3.17390879326862,13.0371036284817,1.03642455232786,405.374560334928,464243.053420806,-10.05652043053,0.350265451684671,-35.7072549715592,0.497938254062091
"50","LCA-3-5-A","LCA","CARIOCA","3","5","A",782.626508217083,-36.2739290666042,2.13880225649384,-50.7461102364557,1277.081164075,-7.34585114175678,461.640881326231,-7.92742877279581,"LCA-3-5-A","LCA-3-5-A","gleon",30,29.8,101.325,0.14,0.035,0,1648.43151369392,92.6622936606206,8819.07809331435,698.771231746594,49.3769935603096,2.77559937392312,11.4881658022675,0.910253847762752,357.080921637225,412337.235316534,-8.33076242312863,0.34861537472252,-35.9078008867174,0.500240003474389
"51","LCA-3-6-A","LCA","CARIOCA","3","6","A",914.003271107696,-35.9740935595602,2.13880225649384,-50.7461102364557,1443.8724520555,-8.28286676748063,461.640881326231,-7.92742877279581,"LCA-3-6-A","LCA-3-6-A","gleon",30,30,101.325,0.14,0.035,0,1883.27815761111,104.070298806972,10294.1217647151,830.380573732485,56.411572266206,3.11731390192623,13.409630391121,1.0816946634425,407.953072137094,481303.109413694,-9.37884350144446,0.351805401216574,-35.6125217733798,0.496970321644481
"52","MYV-1-1-A","MYV","MYVATN","1","1","A",78.2303901074456,-35.4563863486166,2.02787241578759,-50.9593442872923,128.507960706736,-12.2706859250311,427.46355833862,-8.72318027236992,"MYV-1-1-A","MYV-1-1-A","gleon",20,20,101.325,0.14,0.035,0,22.7257825755237,8.68101083525822,756.1740846252,61.1144866846809,0.88999228778895,0.339967729072321,1.17779768285366,0.0951903831003216,5.3164257238324,37289.0364668981,-36.9794021296211,110.20761970694,-34.7565090198264,0.512880988671909
"53","MYV-1-2-A","MYV","MYVATN","1","2","A",104.417159248601,-38.0775056862487,2.02787241578759,-50.9593442872923,115.274829015129,-10.2630954538694,427.46355833862,-8.72318027236992,"MYV-1-2-A","MYV-1-2-A","gleon",20,20,101.325,0.14,0.035,0,4.81025154126005,7.81448584288816,1015.334193189,83.0889288851097,0.18838016951976,0.30603267940691,1.58145893171255,0.129417220057442,1.12530096365537,50068.9385231694,-59.7821145323032,11582.8178550033,-37.5186120204823,0.511835935090776
"54","MYV-1-3-A","MYV","MYVATN","1","3","A",90.4195555906406,-43.2758127572344,2.02787241578759,-50.9593442872923,177.468963530885,-17.8091198891146,427.46355833862,-8.72318027236992,"MYV-1-3-A","MYV-1-3-A","gleon",20,20,101.325,0.14,0.035,0,89.0111023325322,12.1819922845947,876.805439829773,71.2952457140644,3.4858731196728,0.477073964215024,1.36569003929412,0.11104767659702,20.8230855230052,43237.7023822398,-34.3465255827059,2.46767823225117,-42.7877161408135,0.508445759142296
"55","MYV-1-4-A","MYV","MYVATN","1","4","A",103.917800828342,-42.3094798837254,2.02787241578759,-50.9593442872923,118.831948401658,-12.3257913452466,427.46355833862,-8.72318027236992,"MYV-1-4-A","MYV-1-4-A","gleon",20,20,101.325,0.14,0.035,0,9.62601883256246,8.03913176143254,1010.39224018559,82.3214322910649,0.376976348102475,0.314830314178049,1.57376147035474,0.12822178671948,2.25189227123242,49825.2371460546,-70.0315011450847,14963.862394984,-41.8250311932663,0.507933969169132
"56","MYV-1-5-A","MYV","MYVATN","1","5","A",92.8546895664845,-41.4640740396805,2.02787241578759,-50.9593442872923,110.488866063917,-9.81845874144381,427.46355833862,-8.72318027236992,"MYV-1-5-A","MYV-1-5-A","gleon",20,20,101.325,0.14,0.035,0,-1.66917220963197,7.50358526240671,900.904998738522,72.6892165413318,-0.0653685033123601,0.293857119864437,1.40322690443886,0.113218890400433,-0.390482925870775,44426.1183161579,88.3330389104657,2233.55310066699,-40.9439253809829,0.507000374242049
"57","MYV-1-6-A","MYV","MYVATN","1","6","A",90.6204190406942,-42.3580521700777,2.02787241578759,-50.9593442872923,135.023825767565,-8.01570442111348,427.46355833862,-8.72318027236992,"MYV-1-6-A","MYV-1-6-A","gleon",20,20,101.325,0.14,0.035,0,31.5472154330537,9.19589691696192,878.793306039682,71.8653631762513,1.23545925616985,0.360131815403927,1.36878628956699,0.111935677177272,7.38009470460245,43335.7295655297,-5.72170709573965,3.09081633232918,-41.8514720164372,0.506659578895302
"58","MYV-2-1-A","MYV","MYVATN","2","1","A",43.4927977067046,-35.1021037594353,2.03264632573393,-52.6103070988252,86.5321446959949,-7.70674504338601,410.798257325209,-7.54810801335905,"MYV-2-1-A","MYV-2-1-A","gleon",20,20,101.325,0.14,0.035,0,-28.2058831575462,5.82903653464433,412.347384850584,34.3210085764859,-1.1046052384365,0.228278060121058,0.642261886888787,0.0534575373534805,-6.86611558218393,20286.2337451497,-7.98722336789208,1.43982192065534,-34.0042748460522,0.526653105671592
"59","MYV-2-2-A","MYV","MYVATN","2","2","A",46.085105312841,-37.2678084478462,2.03264632573393,-52.6103070988252,91.5604634668256,-10.1725955318518,410.798257325209,-7.54810801335905,"MYV-2-2-A","MYV-2-2-A","gleon",20,20,101.325,0.14,0.035,0,-21.3983486231375,6.26405527966719,438.002429083635,36.6812747320625,-0.838007016159831,0.245314363571877,0.682221536743983,0.0571338283894711,-5.20896772115503,21548.3836778877,6.55724173398548,16.001087728868,-36.3043681343364,0.525140328255654
"60","MYV-2-3-A","MYV","MYVATN","2","3","A",97.464627660404,-41.2893635920674,2.03264632573393,-52.6103070988252,118.569565593834,-11.5839909072358,410.798257325209,-7.54810801335905,"MYV-2-3-A","MYV-2-3-A","gleon",20,20,101.325,0.14,0.035,0,15.1676297590578,8.00001058603466,946.485263211637,77.5475832091667,0.593998180909225,0.313298241771845,1.47422157480885,0.120786159790081,3.6922332284994,46564.1883306919,-51.3592104269027,5776.04373529154,-40.7430644028905,0.505613193781269
"61","MYV-2-4-A","MYV","MYVATN","2","4","A",109.465471171458,-42.0564071619583,2.03264632573393,-52.6103070988252,112.008058752917,-10.5350716913542,410.798257325209,-7.54810801335905,"MYV-2-4-A","MYV-2-4-A","gleon",20,20,101.325,0.14,0.035,0,6.28440527527569,7.57552065150166,1065.25287025844,86.5760334200436,0.246111314747834,0.296674270002208,1.65921100412409,0.13484864613329,1.52980329473516,52407.192376362,-80.7206810890104,1513.6936425725,-41.5472449631384,0.507022393669472
"62","MYV-2-5-A","MYV","MYVATN","2","5","A",129.409213131036,-41.4658828461813,2.03264632573393,-52.6103070988252,103.654507887254,-11.6408395922782,410.798257325209,-7.54810801335905,"MYV-2-5-A","MYV-2-5-A","gleon",20,20,101.325,0.14,0.035,0,-5.02495846928766,6.97482169882957,1262.62820524352,102.817237561812,-0.196788571274216,0.273149560418088,1.96663784792173,0.16014553608742,-1.22321805890954,62117.4568963745,105.65120768408,7838.62288815965,-40.976269840927,0.508691458414241
"63","MYV-2-6-A","MYV","MYVATN","2","6","A",136.00643092526,-40.0896065856094,2.03264632573393,-52.6103070988252,113.400091332187,-11.3481872062479,410.798257325209,-7.54810801335905,"MYV-2-6-A","MYV-2-6-A","gleon",20,20,101.325,0.14,0.035,0,8.16899340269904,7.64942630211442,1327.91826338525,108.003051716113,0.319915985433712,0.299568579971548,2.06833199581206,0.168222829423481,1.98856573927285,65329.528633358,-80.0635938747116,1867.10625193395,-39.5890991164237,0.510340248151204
"64","MYV-3-1-A","MYV","MYVATN","3","1","A",55.2879325712124,-34.2459683030259,1.98305857303692,-51.7338088101701,165.014931228498,-10.0093322942275,411.121934474865,-7.8867128430042,"MYV-3-1-A","MYV-3-1-A","gleon",20,20,101.325,0.14,0.035,0,77.9326519102078,11.0578369727011,529.520337337052,43.73627377234,3.05201631391686,0.433049537133693,0.824767522479416,0.0681225169614846,18.956091946238,26702.2035827276,-15.0694661977878,1.10456238087462,-33.3333107422894,0.51999371572966
"65","MYV-3-2-A","MYV","MYVATN","3","2","A",70.2840618514818,-37.3343634261451,1.98305857303692,-51.7338088101701,100.510981445855,-12.6397838695741,411.121934474865,-7.8867128430042,"MYV-3-2-A","MYV-3-2-A","gleon",20,20,101.325,0.14,0.035,0,-9.39531709175755,6.79211330156987,677.931104292011,55.4379539972687,-0.36794155383682,0.265994292434025,1.05592839004171,0.0863487589534283,-2.28528723570986,34186.1361792156,59.8556937707613,7481.48314403314,-36.6296320551865,0.515236984766055
"66","MYV-3-3-A","MYV","MYVATN","3","3","A",98.8589732117927,-40.9296031396062,1.98305857303692,-51.7338088101701,97.0397737466789,-8.87250306479222,411.121934474865,-7.8867128430042,"MYV-3-3-A","MYV-3-3-A","gleon",20,20,101.325,0.14,0.035,0,-14.0947737819988,6.5670552134289,960.725712913679,77.9603215948944,-0.55198275009545,0.257180516183005,1.4964021401084,0.121429030690075,-3.42836822851653,48446.6634509132,0.203757596644296,225.580191376064,-40.4011978365808,0.511304749968723
"67","MYV-3-4-A","MYV","MYVATN","3","4","A",106.262862978351,-39.1389243379794,1.98305857303692,-51.7338088101701,98.7379982563195,-9.6159691900361,411.121934474865,-7.8867128430042,"MYV-3-4-A","MYV-3-4-A","gleon",20,20,101.325,0.14,0.035,0,-11.7956510486468,6.69987076076892,1033.99908487311,83.8803810476775,-0.461943980492535,0.262381868982992,1.61053089625516,0.130649965984756,-2.8691368811819,52141.6310608317,10.6122528171965,6482.70904699587,-38.594025592008,0.511380214203926
"68","MYV-3-5-A","MYV","MYVATN","3","5","A",151.643133388073,-39.4128502520312,1.98305857303692,-51.7338088101701,118.405966141719,-11.7184613625115,411.121934474865,-7.8867128430042,"MYV-3-5-A","MYV-3-5-A","gleon",20,20,101.325,0.14,0.035,0,14.8316127951246,8.00155666271012,1483.10969270119,119.656525332059,0.580839007821432,0.313358789579733,2.31005425205371,0.186373986017084,3.60759462130604,74789.0008326838,-50.3989109165318,2790.78731356288,-38.9362849825115,0.505725740466369
"69","MYV-3-6-A","MYV","MYVATN","3","6","A",148.31326058601,-39.5449343343886,1.98305857303692,-51.7338088101701,109.224894773212,-10.5980078306347,411.121934474865,-7.8867128430042,"MYV-3-6-A","MYV-3-6-A","gleon",20,20,101.325,0.14,0.035,0,2.40191944184248,7.48043706110714,1450.15525711449,119.154739501941,0.0940645177795769,0.292950584718096,2.25872525432297,0.185592417063561,0.584235293821165,73127.2024352598,-175.904191592967,1892.54633570277,-39.0666453295693,0.508647743065379
"70","OTS-1-1-A","OTS","OTSEGO","1","1","A",28.1573719765285,-51.4496095288601,1.87755203748498,-51.5053075606897,542.556828054196,-11.4422294235492,406.056930505887,-7.36957275580666,"OTS-1-1-A","OTS-1-1-A","gleon",26.2,24.61,101.325,0.14,0.035,0,622.440829628555,39.8157193427649,287.443291163067,24.5542904988902,20.5369322590028,1.31368748973905,0.398692532810574,0.034057543074872,153.289054530626,15309.4713448317,-13.6198938094232,0.403336702667988,-51.1160311156847,0.528766490245829
"71","OTS-1-2-A","OTS","OTSEGO","1","2","A",28.2737668703437,-51.4021895984271,1.87755203748498,-51.5053075606897,577.760647673177,-11.4190364270937,406.056930505887,-7.36957275580666,"OTS-1-2-A","OTS-1-2-A","gleon",25.6,25.16,101.325,0.14,0.035,0,654.319223456592,41.0489349644738,284.945097408798,24.2179948416362,21.9332519481183,1.37598988460325,0.399387527829478,0.0339446622410619,161.139774819606,15176.4154452139,-13.5167651507139,0.396815601286577,-51.0655883343843,0.537264214399526
"72","OTS-1-3-A","OTS","OTSEGO","1","3","A",27.7857611626875,-51.23963995875,1.87755203748498,-51.5053075606897,552.689039665729,-11.7989369912396,406.056930505887,-7.36957275580666,"OTS-1-3-A","OTS-1-3-A","gleon",26,25.11,101.325,0.14,0.035,0,626.10943904586,39.6579819428424,281.743919817949,24.1226083308974,20.7669204299512,1.31538370779797,0.392146859255181,0.0335751880648096,154.192526221833,15005.9180354517,-14.0555576239734,0.405039074390473,-50.8923158885959,0.534579560563997
"73","OTS-1-4-A","OTS","OTSEGO","1","4","A",31.1084852044323,-51.5886636827969,1.87755203748498,-51.5053075606897,569.269069716875,-11.6830785882083,406.056930505887,-7.36957275580666,"OTS-1-4-A","OTS-1-4-A","gleon",26.1,25.09,101.325,0.14,0.035,0,651.923908769862,41.0454445392583,318.216146512506,27.419750238083,21.5662995601216,1.35782464886479,0.442141550688283,0.038098038149912,160.549878549705,16948.4594919011,-13.8664229579435,0.402452301520992,-51.2634849963223,0.534036799207473
"74","OTS-1-5-A","OTS","OTSEGO","1","5","A",24.4998779558454,-51.1760246601443,1.87755203748498,-51.5053075606897,514.504730883299,-11.7136098711959,406.056930505887,-7.36957275580666,"OTS-1-5-A","OTS-1-5-A","gleon",24.9,25.02,101.325,0.14,0.035,0,556.113832506917,35.9254167853324,241.623339240463,20.7073882117082,18.9926559964356,1.22694139697362,0.342896959647662,0.0293866498259597,136.954646190642,12869.0621839767,-14.0563290632686,0.413220060859041,-50.8214607957223,0.544381094157754
"75","OTS-1-6-A","OTS","OTSEGO","1","6","A",18.419817663567,-51.2474597248969,1.87755203748498,-51.5053075606897,502.072364005876,-11.2561495965485,406.056930505887,-7.36957275580666,"OTS-1-6-A","OTS-1-6-A","gleon",25.7,24.94,101.325,0.14,0.035,0,551.479431356803,35.9602643536627,179.785823573905,15.8553753567506,18.4370713376268,1.20222427439808,0.25155105403212,0.0221843764084435,135.813328113804,9575.54411193481,-13.5003773582374,0.414242183598042,-50.891232941177,0.549283340779878
"76","OTS-2-1-A","OTS","OTSEGO","2","1","A",25.3130584509586,-51.656514743969,2.06080319525766,-50.9624768262147,543.75392617658,-12.0040125375544,423.522304281756,-6.94666092310831,"OTS-2-1-A","OTS-2-1-A","gleon",26.1,25.5,101.325,0.14,0.035,0,601.881475262879,39.205484294212,253.208620938788,21.9396582707821,19.9108454538816,1.29695691063709,0.351817635706043,0.0304837910826545,142.113288763764,12286.8899621989,-14.5426848859553,0.419395828458807,-51.3818118881218,0.545081044459479
"77","OTS-2-2-A","OTS","OTSEGO","2","2","A",20.7924914699741,-51.2269365420207,2.06080319525766,-50.9624768262147,526.55778475057,-11.6916103149896,423.522304281756,-6.94666092310831,"OTS-2-2-A","OTS-2-2-A","gleon",26.66,24.7,101.325,0.14,0.035,0,597.719009811659,38.7987033982795,207.170974028874,18.2167407483915,19.4853979783569,1.26482203903456,0.285084923049792,0.0250677883753609,141.130467927851,10052.9237583491,-14.1769192103315,0.418126645591816,-50.9230093197181,0.553552613822075
"78","OTS-2-3-A","OTS","OTSEGO","2","3","A",25.7719078291347,-50.868521131083,2.06080319525766,-50.9624768262147,548.687872301295,-11.647076613772,423.522304281756,-6.94666092310831,"OTS-2-3-A","OTS-2-3-A","gleon",25.5,24.4,101.325,0.14,0.035,0,615.949266981703,39.2491909682576,256.829174932014,22.060695439982,20.7019344281059,1.31915763413874,0.360613657200011,0.0309754063769952,145.434906439291,12462.5765101215,-14.0398553948735,0.408828320664903,-50.5311908502347,0.541155244947618
"79","OTS-2-4-A","OTS","OTSEGO","2","4","A",32.7161243341813,-50.8681796519171,2.06080319525766,-50.9624768262147,544.412522534716,-12.0320631569534,423.522304281756,-6.94666092310831,"OTS-2-4-A","OTS-2-4-A","gleon",26.1,25,101.325,0.14,0.035,0,610.330672316668,39.0286741249571,333.96001855411,28.4760430756938,20.190353402974,1.29110785214402,0.464016682024648,0.0395656913734226,144.108271547048,16205.332916924,-14.5629658885305,0.414901787280968,-50.5324736764497,0.531740601969012
"80","OTS-2-5-A","OTS","OTSEGO","2","5","A",15.2476068351458,-50.0343828088333,2.06080319525766,-50.9624768262147,512.503568543646,-11.5348127325313,423.522304281756,-6.94666092310831,"OTS-2-5-A","OTS-2-5-A","gleon",25.5,24.4,101.325,0.14,0.035,0,563.984178233462,36.5899906871702,143.767021039045,13.1166898100229,18.9553979558923,1.22978243263874,0.201863169382392,0.018417134595408,133.165165690603,6976.26155519769,-14.0143095081464,0.421997502047801,-49.575030388262,0.563048118288932
"81","OTS-2-6-A","OTS","OTSEGO","2","6","A",17.826754475114,-51.6226357109482,2.06080319525766,-50.9624768262147,534.483152760207,-11.0407866294342,423.522304281756,-6.94666092310831,"OTS-2-6-A","OTS-2-6-A","gleon",26.1,24.7,101.325,0.14,0.035,0,600.51427964852,38.1174272554135,173.028907205517,15.7606189115715,19.8656172458348,1.26096288783541,0.240412908597458,0.0218984000709576,141.790473270805,8396.18783606764,-13.3099385135112,0.413612109869342,-51.3698135678242,0.56197049191476
"82","OTS-3-1-A","OTS","OTSEGO","3","1","A",16.6384204569636,-53.4794857283855,2.08518017590862,-51.6891657038744,431.768765333073,-11.8918822838875,470.804505392956,-9.40753522669927,"OTS-3-1-A","OTS-3-1-A","gleon",21.7,23.3,101.325,0.14,0.035,0,398.573421510881,28.6255586817239,148.541755185858,13.4853875982082,14.866581987061,1.06771849827336,0.22373283382024,0.020311621999729,84.6579454838081,7123.68920930926,-14.0544382706555,0.457707313990972,-53.3781278222104,0.563467002206861
"83","OTS-3-2-A","OTS","OTSEGO","3","2","A",15.3254885514583,-53.5819876905208,2.08518017590862,-51.6891657038744,437.75688987052,-11.2823300065604,470.804505392956,-9.40753522669927,"OTS-3-2-A","OTS-3-2-A","gleon",22.2,24.4,101.325,0.14,0.035,0,399.750469989782,28.6625865606291,135.88042296604,12.4382250206434,14.7020339363983,1.05415340807503,0.202705151676781,0.0185552284454516,84.9079533884519,6516.48354113235,-13.1819242235767,0.459181048156714,-53.5178101847174,0.567339220100648
"84","OTS-3-3-A","OTS","OTSEGO","3","3","A",16.486450023342,-53.5036029079585,2.08518017590862,-51.6891657038744,442.401260276425,-11.4651444624508,470.804505392956,-9.40753522669927,"OTS-3-3-A","OTS-3-3-A","gleon",22.2,24.4,101.325,0.14,0.035,0,405.845780715576,29.4901480244379,147.619439633014,13.2562147133732,14.9262074443014,1.08458948667597,0.22021730760089,0.0197754978640733,86.2026119263319,7079.45727369521,-13.4311523473685,0.446560208832096,-53.4081538797205,0.564360470657002
"85","OTS-3-4-A","OTS","OTSEGO","3","4","A",17.0383811033125,-53.4294617261042,2.08518017590862,-51.6891657038744,441.586095759375,-11.398968952349,470.804505392956,-9.40753522669927,"OTS-3-4-A","OTS-3-4-A","gleon",22.2,24.4,101.325,0.14,0.035,0,404.775951957356,28.8675366265601,153.200269233054,13.7074502392422,14.8868612523885,1.06169106731696,0.228542737312286,0.0204486468263494,85.9753777461223,7347.09983353343,-13.3387468536435,0.457307128705462,-53.3162333573287,0.567468423192982
"86","OTS-3-5-A","OTS","OTSEGO","3","5","A",2.37312140438522,-51.619849085207,2.08518017590862,-51.6891657038744,437.555209541133,-8.64521133589261,470.804505392956,-9.40753522669927,"OTS-3-5-A","OTS-3-5-A","gleon",23.3,23.9,101.325,0.14,0.035,0,417.671703780481,29.8378058493819,5.04182803790256,1.95996619461749,14.898632086231,1.06433470974125,0.00736698581758854,0.00286385077994583,88.7144661948111,241.793399733698,-9.39778818620268,0.451175056879552,-51.0215466118345,21.049236785121
"87","OTS-3-6-A","OTS","OTSEGO","3","6","A",16.358884903,-52.7686228005773,2.08518017590862,-51.6891657038744,450.683134379381,-11.710262504433,470.804505392956,-9.40753522669927,"OTS-3-6-A","OTS-3-6-A","gleon",22.8,24.4,101.325,0.14,0.035,0,423.751040532188,30.2114687361025,148.004250398553,13.3492328479743,15.3259552265434,1.0926689798711,0.218293091912421,0.0196889299138104,90.0057318224908,7097.9118307635,-13.7559591667194,0.45127119795118,-52.5793934572453,0.571748037333923
