"","SampleName","lake","lakename","campaign","location","duplicate","pCH4.meas","iso.CH4.meas","pCH4.head","iso.CH4.head","pCO2.meas","iso.CO2.meas","pCO2.head","iso.CO2.head","ID","ID.rep","Sample.type","temp.in","temp.sam","atm","vol.tot","vol.head","sal","pCO2.insitu","pCO2.insitu.error","pCH4.insitu","pCH4.insitu.error","conc.CO2.insitu","conc.CO2.insitu.error","conc.CH4.insitu","conc.CH4.insitu.error","sat.CO2.insitu","sat.CH4.insitu","iso.CO2.insitu","iso.CO2.insitu.error","iso.CH4.insitu","iso.CH4.insitu.error"
"1","BLU-1-1-A","BLU","BREITER LUZIN","1","1","A",29.4866469702124,-50.0508123466685,2.1021626441434,-52.77087898189,462.288569339275,-8.33296211371763,435.512055827723,-7.96635303017197,"BLU-1-1-A","BLU-1-1-A","gleon",20,20,101.325,0.14,0.035,0,471.763146649246,31.2918282293149,273.115585210807,23.2614296830741,18.4752960997296,1.22545772416663,0.425397947315197,0.0362314162011615,108.323785837025,12992.1243711424,-9.55071478425319,0.416138970458702,-49.5345505965225,0.528190987547931
"2","BLU-1-2-A","BLU","BREITER LUZIN","1","2","A",27.1569302862462,-49.9258254973898,2.1021626441434,-52.77087898189,421.983349477693,-8.15744255647795,435.512055827723,-7.96635303017197,"BLU-1-2-A","BLU-1-2-A","gleon",20,20,101.325,0.14,0.035,0,417.196364265374,28.6105206912941,250.059299592483,21.6630471951031,16.3383393049652,1.1204517459523,0.389486058335382,0.0337418159504743,95.7944467168563,11895.33551503,-9.32602592261472,0.430104687866636,-49.3830419502403,0.541796118691399
"3","BLU-1-3-A","BLU","BREITER LUZIN","1","3","A",3.08164729471084,-53.7467261593349,2.1021626441434,-52.77087898189,346.115656839852,-12.6976192962069,435.512055827723,-7.96635303017197,"BLU-1-3-A","BLU-1-3-A","gleon",20,20,101.325,0.14,0.035,0,314.483715919756,23.4120008916717,11.7957352650853,2.43792642734239,12.3158831108963,0.916866126218128,0.0183727397503429,0.00379725271663438,72.2101057161452,561.123816843956,-16.1140025162434,0.497568763806826,-54.9639295658653,1.40355639150814
"4","BLU-1-4-A","BLU","BREITER LUZIN","1","4","A",16.2992980197876,-51.9456297581813,2.1021626441434,-52.77087898189,346.022948506269,-12.3106970281762,435.512055827723,-7.96635303017197,"BLU-1-4-A","BLU-1-4-A","gleon",20,20,101.325,0.14,0.035,0,314.358203753313,23.2852513401644,142.605602584138,12.9206378455628,12.3109677747671,0.911902331332416,0.222118889949525,0.0201248596386875,72.1812862690682,6783.75686017617,-15.5383331546126,0.492226467301675,-51.5074018770405,0.568606590069021
"5","BLU-1-5-B","BLU","BREITER LUZIN","1","5","B",11.7917026967931,-53.3493431425271,2.1021626441434,-52.77087898189,395.118729150049,-7.28006877330886,435.512055827723,-7.96635303017197,"BLU-1-5-B","BLU-1-5-B","gleon",20,20,101.325,0.14,0.035,0,380.825990991684,26.9831662359086,97.9957124914748,9.29558898015302,14.9139944398316,1.05672091908291,0.152635650240857,0.0144785749527647,87.4432718671579,4661.66177790714,-8.10036393081861,0.441762164904801,-53.129740836485,0.595136398665151
"6","BLU-2-1-A","BLU","BREITER LUZIN","2","1","A",20.17311182,-52.3703092732268,2.04885618596955,-51.637094287854,376.795653992628,-7.81487739804124,397.430882933564,-7.67650406749728,"BLU-2-1-A","BLU-2-1-A","gleon",20,20,101.325,0.14,0.035,0,369.494103257672,25.5268113535115,181.417453832914,15.9198063068573,14.4702124641903,0.99968681654718,0.282571250586462,0.0247962887924005,92.9706570688009,8854.57237434477,-8.96554121220018,0.431739735466955,-52.1139788280884,0.550613865217406
"7","BLU-2-2-A","BLU","BREITER LUZIN","2","2","A",26.6815025965182,-52.5485583313886,2.04885618596955,-51.637094287854,377.877106992228,-7.97186504891918,397.430882933564,-7.67650406749728,"BLU-2-2-A","BLU-2-2-A","gleon",20,20,101.325,0.14,0.035,0,370.958216608007,25.693283942191,245.828426073364,21.2952106609403,14.5275504056195,1.00620625408737,0.382896156448259,0.0331688830420149,93.3390515276131,11998.3251024051,-9.18183347014686,0.436318757191678,-52.2861422269185,0.534845411585071
"8","BLU-2-3-A","BLU","BREITER LUZIN","2","3","A",26.078889973399,-52.9049560461347,2.04885618596955,-51.637094287854,411.099122539223,-5.89012950857462,397.430882933564,-7.67650406749728,"BLU-2-3-A","BLU-2-3-A","gleon",20,20,101.325,0.14,0.035,0,415.935480072446,27.9291542324143,239.864607016968,20.6098987576657,16.2889602702159,1.09376791706563,0.373607062298644,0.0321014585056281,104.656054155201,11707.2446889902,-6.38416143192409,0.423506986969562,-52.6713037818146,0.537697828940466
"9","BLU-2-4-A","BLU","BREITER LUZIN","2","4","A",16.6672155266166,-51.0171947379223,2.04885618596955,-51.637094287854,360.938974970674,-7.32743734972487,397.430882933564,-7.67650406749728,"BLU-2-4-A","BLU-2-4-A","gleon",20,20,101.325,0.14,0.035,0,348.026711279824,24.5989762136213,146.720983294335,13.1318846392891,13.6295015564038,0.963350724881352,0.228528903150298,0.0204538923167704,87.5691160965972,7161.11673913824,-8.28439053203372,0.439416265693891,-50.6101815904976,0.56246111000956
"10","BLU-2-5-A","BLU","BREITER LUZIN","2","5","A",22.7386912826166,-52.6802082431606,2.04885618596955,-51.637094287854,344.066983530207,-7.42589267331813,397.430882933564,-7.67650406749728,"BLU-2-5-A","BLU-2-5-A","gleon",20,20,101.325,0.14,0.035,0,325.184749656089,23.2499938276586,206.807980189058,17.8913381931389,12.7349594381935,0.910521568574852,0.322118894067954,0.0278670971347488,81.821711301295,10093.8260872221,-8.41551543759491,0.448259825578771,-52.4421473421343,0.545762182474746
"11","BLU-3-1-A","BLU","BREITER LUZIN","3","1","A",12.1732400153842,-53.7682571091576,1.97394515846059,-51.827142759404,583.590797589851,-17.9615942134926,393.557806701872,-7.56684890769927,"BLU-3-1-A","BLU-3-1-A","gleon",20,20,101.325,0.14,0.035,0,650.831899118486,39.3958971006086,102.912336914484,9.63821012845536,25.4880274832138,1.54283112027268,0.160293660440654,0.0150122330121614,165.37136045468,5213.53576989656,-21.2837201215935,0.403979129235109,-53.7694973318103,0.589352474796416
"12","BLU-3-2-A","BLU","BREITER LUZIN","3","2","A",17.1331068316856,-51.0458353028041,1.97394515846059,-51.827142759404,407.546313758763,-8.40453009955568,393.557806701872,-7.56684890769927,"BLU-3-2-A","BLU-3-2-A","gleon",20,20,101.325,0.14,0.035,0,412.495994437108,27.2579198101578,151.998179297173,13.6540336185199,16.1542623481867,1.06748088131134,0.236748530548913,0.0212671783977754,104.812047280663,7700.2230100309,-9.78532617364363,0.415859486845056,-50.6255654007428,0.55584220249697
"13","BLU-3-3-A","BLU","BREITER LUZIN","3","3","A",16.378624550684,-50.1506688420881,1.97394515846059,-51.827142759404,398.387379233679,-8.58784641304767,393.557806701872,-7.56684890769927,"BLU-3-3-A","BLU-3-3-A","gleon",20,20,101.325,0.14,0.035,0,400.096270807893,27.0028513742566,144.531366235972,13.1084583156678,15.6686615393238,1.05749183296698,0.225118410844212,0.0204174040659298,101.661373245475,7321.95449384658,-10.0412113090988,0.423011633707029,-49.6169674106041,0.562294159127304
"14","BLU-3-4-A","BLU","BREITER LUZIN","3","4","A",9.60948019655517,-51.058966876803,1.97394515846059,-51.827142759404,381.646145907242,-8.97226569159951,393.557806701872,-7.56684890769927,"BLU-3-4-A","BLU-3-4-A","gleon",20,20,101.325,0.14,0.035,0,377.431334630927,25.8567530157132,77.5398188540176,7.61516744330146,14.7810521320925,1.01260806728096,0.120774066226324,0.0118611927486362,95.9023879602112,3928.16479838214,-10.5888048162074,0.436330513699969,-50.554988500272,0.61513006053985
"15","BLU-3-5-A","BLU","BREITER LUZIN","3","5","A",9.40424850744652,-51.1363576464752,1.97394515846059,-51.827142759404,395.310352650396,-8.82916142701733,393.557806701872,-7.56684890769927,"BLU-3-5-A","BLU-3-5-A","gleon",20,20,101.325,0.14,0.035,0,395.930471922885,27.0968532433456,75.5087219079442,7.41253410453223,15.5055195719211,1.06117315563426,0.117610480849126,0.0115455761707558,100.602875913172,3825.26949060888,-10.3711403048304,0.428950861843671,-50.6456985803407,0.611947767238884
"16","GFU-1-1-A","GFU","GROSSE FUCHSKUHLE","1","1","A",18.8697147295155,-43.0891968283402,1.98396413121831,-52.5313451847432,496.965234706701,-10.3238130368454,412.09511082281,-7.26158169822062,"GFU-1-1-A","GFU-1-1-A","gleon",20,20,101.325,0.14,0.035,0,526.995602539982,33.7353758770616,169.095566736609,15.0001118427795,20.6383221524096,1.3211524952537,0.263378990013812,0.0233637958906356,127.882032254097,8523.11612270789,-12.2691073335071,0.403438686883596,-41.7736058496302,0.561258619245473
"17","GFU-1-2-A","GFU","GROSSE FUCHSKUHLE","1","2","A",9.20897190875813,-33.8716354611577,1.98396413121831,-52.5313451847432,288.896814266699,-5.11422976766798,412.09511082281,-7.26158169822062,"GFU-1-2-A","GFU-1-2-A","gleon",20,20,101.325,0.14,0.035,0,245.304440499517,19.2134337814872,73.4870117163728,7.3023154818741,9.60666852634987,0.752440882096807,0.114461516043999,0.0113739024239116,59.5261710360333,3704.0494109763,-4.93578774112357,0.510883065401411,-29.0598360279885,0.773461727494924
"18","GFU-1-3-A","GFU","GROSSE FUCHSKUHLE","1","3","A",17.1437556624308,-34.411843352,1.98396413121831,-52.5313451847432,273.957557863231,-4.97703846777385,412.09511082281,-7.26158169822062,"GFU-1-3-A","GFU-1-3-A","gleon",20,20,101.325,0.14,0.035,0,225.079091129274,18.4868700293844,152.014431725595,13.5023236259209,8.8145987748448,0.723987026489876,0.236773844921522,0.0210308787395592,54.618238658515,7662.15625240394,-4.59501873598379,0.531670646157567,-31.9779701861353,0.585348257078835
"19","GFU-1-4-A","GFU","GROSSE FUCHSKUHLE","1","4","A",18.3802730556943,-35.2656901993627,1.98396413121831,-52.5313451847432,276.514413609067,-5.8256640228974,412.09511082281,-7.26158169822062,"GFU-1-4-A","GFU-1-4-A","gleon",20,20,101.325,0.14,0.035,0,228.540662398434,18.7956332278533,164.251755854884,14.393882150431,8.95016161951015,0.736078881389796,0.2558343923495,0.022419547811466,55.4582319460472,8278.96801511332,-6.00750821879416,0.51989511979489,-33.0803175131842,0.580582487752688
"20","GFU-1-5-A","GFU","GROSSE FUCHSKUHLE","1","5","A",11.7711340406946,-29.3680019711477,1.98396413121831,-52.5313451847432,240.269214678276,-6.08574861054532,412.09511082281,-7.26158169822062,"GFU-1-5-A","GFU-1-5-A","gleon",20,20,101.325,0.14,0.035,0,179.470495077457,16.2196220194608,98.8437181008626,9.38372521565301,7.0284645192651,0.635196542086044,0.153956482390611,0.0146158537303081,43.5507460205283,4982.13231507189,-6.22841316004241,0.579008262445851,-24.9017185410823,0.720835400913575
"21","GFU-2-1-A","GFU","GROSSE FUCHSKUHLE","2","1","A",20.2971188787732,-35.7770368574536,1.99331163564057,-52.202115292402,386.058828165773,-6.48247446820671,405.564397090066,-6.98633404648449,"GFU-2-1-A","GFU-2-1-A","gleon",20,20,101.325,0.14,0.035,0,379.156995308839,26.2543473505733,183.138860622282,16.1560747233622,14.8486328497016,1.02817874743326,0.285252470386228,0.0251642945190566,93.4887278146945,9187.66826760779,-7.38977210078128,0.432531085513522,-33.8565633062583,0.569416651924188
"22","GFU-2-2-A","GFU","GROSSE FUCHSKUHLE","2","2","A",28.5449448229278,-37.5158283543814,1.99331163564057,-52.202115292402,479.620098605773,-8.0296309952701,405.564397090066,-6.98633404648449,"GFU-2-2-A","GFU-2-2-A","gleon",20,20,101.325,0.14,0.035,0,505.823901014626,32.7197438948085,264.764335516895,22.5782366409327,19.8091911416592,1.28137808359447,0.412390251417636,0.0351672919494362,124.720982572416,13282.6363315644,-9.42361908053866,0.405086119687946,-36.2021524522199,0.540784157879217
"23","GFU-2-3-A","GFU","GROSSE FUCHSKUHLE","2","3","A",22.1770983357668,-32.7853939119844,1.99331163564057,-52.202115292402,346.206778079171,-5.4064104219601,405.564397090066,-6.98633404648449,"GFU-2-3-A","GFU-2-3-A","gleon",20,20,101.325,0.14,0.035,0,325.203731883038,23.3562683663613,201.744274583276,17.6045632983827,12.7357028245008,0.914683516332619,0.314231793927385,0.027420423791385,80.1854734331667,10121.0603989899,-5.80722834939646,0.458311795567618,-30.7486271075855,0.568257419540616
"24","GFU-2-4-A","GFU","GROSSE FUCHSKUHLE","2","4","A",21.214789545114,-30.0205203684456,1.99331163564057,-52.202115292402,334.173856131503,-5.58008615199223,405.564397090066,-6.98633404648449,"GFU-2-4-A","GFU-2-4-A","gleon",20,20,101.325,0.14,0.035,0,308.913091722397,22.6272560431401,192.22068466223,16.8136942861645,12.0977250537494,0.886133769224295,0.299398090459463,0.0261885861643483,76.1686908266248,9643.28312870443,-6.02481841556848,0.465028919667605,-27.6441126864815,0.580628626441695
"25","GFU-2-5-A","GFU","GROSSE FUCHSKUHLE","2","5","A",16.1025607699689,-28.6320517341089,1.99331163564057,-52.202115292402,275.128938014301,-4.46462038420777,405.564397090066,-6.98633404648449,"GFU-2-5-A","GFU-2-5-A","gleon",20,20,101.325,0.14,0.035,0,228.975773210313,18.6841678607047,141.626976166615,12.6840778947092,8.96720152850419,0.731713649222843,0.220594606123388,0.0197563998254826,56.4585488403862,7105.1095892039,-3.98220271743409,0.526513076846095,-25.3507454804468,0.628039022467222
"26","GFU-3-1-A","GFU","GROSSE FUCHSKUHLE","3","1","A",112.243109542332,-34.6756938828497,2.38894607954802,-55.4093824132252,2005.38734073627,-11.9686432169534,471.361900795792,-9.64712203981165,"GFU-3-1-A","GFU-3-1-A","gleon",20,20,101.325,0.14,0.035,0,2548.18551421422,135.669716298232,1089.57220170525,88.6419543647199,99.792623112954,5.31312841661994,1.69709018143127,0.138066472492421,540.600653110097,45608.9072513263,-13.2185936350249,0.332076863404278,-33.9412565772931,0.507453248133981
"27","GFU-3-2-A","GFU","GROSSE FUCHSKUHLE","3","2","A",95.061595189,-33.3294973853855,2.38894607954802,-55.4093824132252,1826.86766069271,-12.0639960224167,471.361900795792,-9.64712203981165,"GFU-3-2-A","GFU-3-2-A","gleon",20,20,101.325,0.14,0.035,0,2306.49859213243,123.081936939049,919.533542063887,75.5948329015886,90.32762466912,4.82016292630816,1.43224225369462,0.117744605161034,489.326478919575,38491.1802713379,-13.3367636958897,0.336830430986103,-32.4891570617283,0.508756078732615
"28","GFU-3-3-A","GFU","GROSSE FUCHSKUHLE","3","3","A",78.6658908170052,-31.1895635751282,2.38894607954802,-55.4093824132252,1572.08976029333,-12.4370887112872,471.361900795792,-9.64712203981165,"GFU-3-3-A","GFU-3-3-A","gleon",20,20,101.325,0.14,0.035,0,1961.57031001273,106.166927320355,757.271733357286,62.3003525738092,76.8194645031658,4.15773345623452,1.17950735283511,0.0970374579006737,416.149524749676,31698.9880952256,-13.7723109652103,0.34263216366628,-30.1798126663183,0.517473387492505
"29","GFU-3-4-A","GFU","GROSSE FUCHSKUHLE","3","4","A",72.2735720589533,-28.9725182236943,2.38894607954802,-55.4093824132252,1669.47031877824,-10.9146148468756,471.361900795792,-9.64712203981165,"GFU-3-4-A","GFU-3-4-A","gleon",20,20,101.325,0.14,0.035,0,2093.40791718903,113.197163511947,694.009480026939,57.4166408088537,81.9825189870994,4.43305317167483,1.08097166257602,0.0894307116269756,444.119033306418,29050.8641433315,-12.1135986990011,0.338125961568739,-27.8329094798635,0.519415932671219
"30","GFU-3-5-A","GFU","GROSSE FUCHSKUHLE","3","5","A",67.5056884643918,-30.7732995361855,2.38894607954802,-55.4093824132252,1622.36681126237,-10.4006451336639,471.361900795792,-9.64712203981165,"GFU-3-5-A","GFU-3-5-A","gleon",20,20,101.325,0.14,0.035,0,2029.63734719928,110.208363380907,646.823619742855,53.0149213946481,79.4851213599694,4.31600509830141,1.00747615666537,0.0825747044825455,430.59002939624,27075.689371157,-11.5605661981192,0.336254883849732,-29.6338003084574,0.519673495683913
"31","SRO-1-1-A","SRO","SAN ROQUE","1","1","A",28.8244930753299,-22.1321538376289,2.27030434634975,-47.6643308999015,783.853890379793,-13.7651331882629,457.588214301404,-8.06797189368399,"SRO-1-1-A","SRO-1-1-A","gleon",20,20,101.325,0.14,0.035,0,899.299441954718,53.1551694763776,265.06661941412,22.6673578703782,35.2185701457263,2.08167488766888,0.412861081192094,0.0353061049287066,196.530289427946,11675.3782302492,-15.888867390757,0.380814911139909,-19.8566092237637,0.565341371464789
"32","SRO-1-2-A","SRO","SAN ROQUE","1","2","A",16.4834044049382,-21.7568763890412,2.27030434634975,-47.6643308999015,1006.13512251608,-13.3861323765258,457.588214301404,-8.06797189368399,"SRO-1-2-A","SRO-1-2-A","gleon",20,20,101.325,0.14,0.035,0,1200.23246412044,67.7938131059983,142.931740446265,12.9179495072991,47.00377789285,2.65495679295671,0.222626874058097,0.0201206723508102,262.295318500024,6295.70835628598,-15.2015577211449,0.359213043496236,-17.7658366066661,0.671638911914864
"33","SRO-1-3-A","SRO","SAN ROQUE","1","3","A",15.6059419916166,-19.6213528282384,2.27030434634975,-47.6643308999015,1011.88136483938,-13.2851211367772,457.588214301404,-8.06797189368399,"SRO-1-3-A","SRO-1-3-A","gleon",20,20,101.325,0.14,0.035,0,1208.01195162745,68.7580061271723,134.247841601345,12.3309841445796,47.3084399594335,2.69271674027351,0.209101052232621,0.0192064299056078,263.99542511638,5913.20902931766,-15.0823875601217,0.357500014225276,-15.0722004913841,0.705233435837455
"34","SRO-1-4-A","SRO","SAN ROQUE","1","4","A",23.1094285821753,-19.6969618999897,2.27030434634975,-47.6643308999015,1296.84944299227,-13.9990423643918,457.588214301404,-8.06797189368399,"SRO-1-4-A","SRO-1-4-A","gleon",20,20,101.325,0.14,0.035,0,1593.81287667687,87.6009301181032,208.506883980117,18.2012023510042,62.4172639031089,3.43064763332815,0.324765063765098,0.0283497337320001,348.307239317807,9184.09394385202,-15.6995692059937,0.346993116172411,-16.6577710486738,0.604984009375642
"35","SRO-1-5-A","SRO","SAN ROQUE","1","5","A",21.3836287124072,-20.0683555917835,2.27030434634975,-47.6643308999015,1354.48480784175,-13.671633002299,457.588214301404,-8.06797189368399,"SRO-1-5-A","SRO-1-5-A","gleon",20,20,101.325,0.14,0.035,0,1671.84188686854,90.7711430961393,191.427324482051,16.9664912751516,65.4730538220525,3.5548002380503,0.298162372652041,0.0264265789007236,365.359472691168,8431.79130541826,-15.3123298594869,0.342340261474242,-16.8266316050166,0.612015314966442
"36","SRO-1-6-A","SRO","SAN ROQUE","1","6","A",19.2116476589124,-19.9048254495464,2.27030434634975,-47.6643308999015,1180.12558585773,-13.7700563609072,457.588214301404,-8.06797189368399,"SRO-1-6-A","SRO-1-6-A","gleon",20,20,101.325,0.14,0.035,0,1435.78755556114,80.650171526016,169.932086081771,15.0419133227862,56.2286401846085,3.15844043779232,0.264681931448102,0.0234289048216249,313.772844379995,7484.99144420844,-15.511075807623,0.35380460676317,-16.2753513637799,0.640663123915959
"37","SRO-2-1-A","SRO","SAN ROQUE","2","1","A",21.8622361971753,-31.0961467966392,1.91588132086034,-53.0346608118519,620.338365999897,-13.1645179298454,445.645637346564,-6.9984190723916,"SRO-2-1-A","SRO-2-1-A","gleon",20,20,101.325,0.14,0.035,0,682.151483021337,41.4596548212017,199.317075310601,17.5068424729364,26.7145721814068,1.62365247148859,0.310451249556312,0.0272682162982729,153.070382800774,10403.414509052,-15.6878797796641,0.394335954448585,-28.8900484083784,0.568498784528627
"38","SRO-2-2-A","SRO","SAN ROQUE","2","2","A",25.0873465852917,-35.1631063341041,1.91588132086034,-53.0346608118519,290.295581011458,-11.0645684513271,445.645637346564,-6.9984190723916,"SRO-2-2-A","SRO-2-2-A","gleon",20,20,101.325,0.14,0.035,0,235.326657659272,19.5560915690217,231.234718675047,19.9919989852504,9.21591631583565,0.765860124635234,0.36016536587045,0.0311390334040758,52.8057806333389,12069.3654746428,-14.8871993523245,0.572122202696092,-33.5157532388288,0.549922505100424
"39","SRO-2-3-A","SRO","SAN ROQUE","2","3","A",40.903930561933,-34.9855621112371,1.91588132086034,-53.0346608118519,300.599961854691,-12.3076322053423,445.645637346564,-6.9984190723916,"SRO-2-3-A","SRO-2-3-A","gleon",20,20,101.325,0.14,0.035,0,249.277131295298,20.3199015159634,387.765201622357,32.223131486603,9.76224795065637,0.795772624231476,0.603973298276232,0.0501899369085372,55.9361767299077,20239.5209661645,-16.7641155345675,0.581832944834139,-33.8621851299486,0.534671826075433
"40","SRO-2-4-A","SRO","SAN ROQUE","2","4","A",35.990196845943,-34.3812827781192,1.91588132086034,-53.0346608118519,289.919658456321,-11.6907101074518,445.645637346564,-6.9984190723916,"SRO-2-4-A","SRO-2-4-A","gleon",20,20,101.325,0.14,0.035,0,234.81771900741,19.7189917531293,339.135920307611,28.8603907283357,9.1959851441099,0.772239658851641,0.528229556172541,0.0449522167146643,52.6915780900599,17701.3010469417,-15.9397184351922,0.595477525623859,-33.1137712668342,0.5338252624566
"41","SRO-2-5-A","SRO","SAN ROQUE","2","5","A",25.7997201855751,-33.3540903072435,1.91588132086034,-53.0346608118519,216.19069902456,-9.7341311261886,445.645637346564,-6.9984190723916,"SRO-2-5-A","SRO-2-5-A","gleon",20,20,101.325,0.14,0.035,0,135.0005712901,14.5768424320072,238.284798759088,20.5639940402255,5.28692320697881,0.570861632671506,0.371146392800289,0.0320299584754994,30.293255442578,12437.3465185247,-14.0275680752272,0.775980014812707,-31.6163120460108,0.549120283637378
"42","SRO-2-6-A","SRO","SAN ROQUE","2","6","A",7.134735289301,-22.1781682128069,1.91588132086034,-53.0346608118519,890.032791265792,-13.4879989560198,445.645637346564,-6.9984190723916,"SRO-2-6-A","SRO-2-6-A","gleon",20,20,101.325,0.14,0.035,0,1047.27433966787,60.0192904962804,53.564817230027,5.67958590732888,41.0135968874194,2.35048916281481,0.0834312083668874,0.00884637976523072,235.001591377285,2795.83169619157,-15.5631272639298,0.368725255620941,-12.0293359658468,1.27597078086575
"43","SRO-3-1-A","SRO","SAN ROQUE","3","1","A",33.2603335726166,-30.8944521272021,1.98635044795197,-52.4009706724975,150.713844466943,-10.1327479073865,427.800572595418,-7.39550397767439,"SRO-3-1-A","SRO-3-1-A","gleon",20,20,101.325,0.14,0.035,0,52.6697273309505,10.2433623531219,311.492605997154,26.022902690714,2.06266389149473,0.401152896055817,0.485173026990654,0.0405326169111452,12.3117477406374,15681.6540766167,-19.0975750668602,2.26138332944578,-29.3443321196664,0.535094841663821
"44","SRO-3-2-A","SRO","SAN ROQUE","3","2","A",16.1331432955258,-26.5296091762474,1.98635044795197,-52.4009706724975,146.052614763711,-8.82641903245155,427.800572595418,-7.39550397767439,"SRO-3-2-A","SRO-3-2-A","gleon",20,20,101.325,0.14,0.035,0,46.359172327629,9.83012624016439,141.991570276495,12.825948157105,1.81552849512457,0.384969649017092,0.22116248871356,0.0199773733681007,10.8366316684368,7148.36450047852,-14.5966613268398,1.89283156874348,-22.9797498336126,0.62821710281183
"45","SRO-3-3-A","SRO","SAN ROQUE","3","3","A",12.2932341176256,-22.3373494011281,1.98635044795197,-52.4009706724975,137.445144670985,-8.84067783578277,427.800572595418,-7.39550397767439,"SRO-3-3-A","SRO-3-3-A","gleon",20,20,101.325,0.14,0.035,0,34.7060428064784,9.39640899877067,103.989506178571,9.78384543002785,1.35916597524374,0.36798431534866,0.161971432119263,0.0152390708848436,8.11266861938046,5235.20440644245,-16.2418936351516,23.8033529990268,-16.8983958545353,0.766484582899227
"46","SRO-3-4-A","SRO","SAN ROQUE","3","4","A",10.8613723294089,-22.8272440811379,1.98635044795197,-52.4009706724975,152.274607022808,-9.81174253703842,427.800572595418,-7.39550397767439,"SRO-3-4-A","SRO-3-4-A","gleon",20,20,101.325,0.14,0.035,0,54.7827486971966,10.3183269708756,89.8189357472835,8.59640456183256,2.14541451685351,0.404088677538199,0.139899709009423,0.0133895429368191,12.805674467623,4521.80710810076,-17.5861551498409,1.98301737826229,-16.6786464391028,0.83271714074992
"47","SRO-3-5-A","SRO","SAN ROQUE","3","5","A",12.1181885761287,-25.1676335264653,1.98635044795197,-52.4009706724975,138.285293906634,-9.48678775749901,427.800572595418,-7.39550397767439,"SRO-3-5-A","SRO-3-5-A","gleon",20,20,101.325,0.14,0.035,0,35.8434696873898,9.31958194561988,102.257149609747,9.62914465671148,1.40371014654217,0.364975596745878,0.159273157219181,0.0149981128620121,8.37854644979351,5147.99136855128,-19.4166055986378,4.76898875170417,-20.1312495380668,0.743184222314551
"48","SRO-3-6-A","SRO","SAN ROQUE","3","6","A",10.2571181039554,-25.7837557217574,1.98635044795197,-52.4009706724975,186.184338039159,-8.2169273298218,427.800572595418,-7.39550397767439,"SRO-3-6-A","SRO-3-6-A","gleon",20,20,101.325,0.14,0.035,0,100.691068250331,12.5525703473465,83.8388704011339,8.17730490477836,3.94328661264859,0.491586626948496,0.130585310048634,0.0127367638810441,23.5369175967787,4220.74918791778,-10.5498031133455,0.807650652126019,-19.8433099172107,0.823167873987902
"49","STE-1-1-A","STE","STECHLIN","1","1","A",9.60602732695321,-49.046650770734,1.74892593654754,-52.6221753280246,296.585332156552,-7.30810659486206,369.252282654483,-8.09389566643596,"STE-1-1-A","STE-1-1-A","gleon",20,20,101.325,0.14,0.035,0,270.872924151102,20.3353709240751,79.507554286545,7.62916371051644,10.6079873229521,0.796378440725156,0.123838961308055,0.0118829929814524,73.3571427653335,4546.07897481906,-8.02708025398001,0.469178469409212,-48.0169262481887,0.598346446122403
"50","STE-1-2-A","STE","STECHLIN","1","2","A",12.2693097962376,-49.5996805204752,1.74892593654754,-52.6221753280246,311.806950810693,-5.98539828595544,369.252282654483,-8.09389566643596,"STE-1-2-A","STE-1-2-A","gleon",20,20,101.325,0.14,0.035,0,291.480546575277,21.0979697750689,105.865008700081,9.71304574644737,11.4150277391064,0.826243511105273,0.164892667544987,0.0151287950833273,78.938048664149,6053.14418911665,-6.13826622646646,0.455192417139117,-48.8254495330182,0.571019290777435
"51","STE-1-3-A","STE","STECHLIN","1","3","A",20.6843477382798,-46.5341794044974,1.74892593654754,-52.6221753280246,265.010125278912,-6.12097020019222,369.252282654483,-8.09389566643596,"STE-1-3-A","STE-1-3-A","gleon",20,20,101.325,0.14,0.035,0,228.125174645332,17.7900068934714,189.14531467722,16.4193471988279,8.9338901932258,0.696696313197784,0.294607971734279,0.0255743610868844,61.7803018048757,10814.9413719944,-6.08900135702484,0.498255669348183,-45.703367678575,0.548314805437824
"52","STE-1-4-A","STE","STECHLIN","1","4","A",3.17199860558818,-52.8036289256847,1.74892593654754,-52.6221753280246,400.979274920493,-6.94172140890986,369.252282654483,-8.09389566643596,"STE-1-4-A","STE-1-4-A","gleon",20,20,101.325,0.14,0.035,0,412.205525153088,27.2030987998156,15.8325139276727,2.50684019798174,16.1428869237428,1.06533396838321,0.0246603243841712,0.00390459106771788,111.632492070143,905.270691961194,-7.67451922710593,0.41233259182936,-52.6519535953895,1.00655998625891
"53","STE-1-5-A","STE","STECHLIN","1","5","A",4.4473281127468,-51.6344197618818,1.74892593654754,-52.6221753280246,377.35269966665,-6.71589789025566,369.252282654483,-8.09389566643596,"STE-1-5-A","STE-1-5-A","gleon",20,20,101.325,0.14,0.035,0,380.218943891899,25.3664120423723,28.4539462146516,3.52148428575422,14.8902211226603,0.993405222089162,0.044319148991029,0.00548497510863872,102.969964371941,1626.93831797252,-7.34037195567689,0.422256880836711,-50.7642842852275,0.785933005910297
"54","STE-2-1-A","STE","STECHLIN","2","1","A",7.24621473791428,-49.6402240992364,2.04064215192052,-51.3575496189346,331.276725481232,-6.68012252759852,400.905800399145,-6.63074315369002,"STE-2-1-A","STE-2-1-A","gleon",20,20,101.325,0.14,0.035,0,306.639236621941,22.5333882442611,53.5581374660958,5.77727337349484,12.008675820957,0.882457697045199,0.0834208041350575,0.00899853529876919,76.4866051617733,2624.57273146545,-7.80096620452966,0.455911974089616,-48.7280963303799,0.680780640631991
"55","STE-2-2-A","STE","STECHLIN","2","2","A",20.6613077680208,-47.2397062511244,2.04064215192052,-51.3575496189346,290.974627985026,-6.22785299763368,400.905800399145,-6.63074315369002,"STE-2-2-A","STE-2-2-A","gleon",20,20,101.325,0.14,0.035,0,252.076681418385,19.6733374809692,186.322013274351,16.6612244595277,9.87188457199366,0.770451735817875,0.290210468675252,0.0259511030077986,62.8767858103863,9130.55790301093,-7.09912657325793,0.492482038412877,-46.5084730954603,0.550177504372807
"56","STE-2-3-A","STE","STECHLIN","2","3","A",17.7036881001554,-46.8605224353628,2.04064215192052,-51.3575496189346,334.49676191772,-8.18797956593317,400.905800399145,-6.63074315369002,"STE-2-3-A","STE-2-3-A","gleon",20,20,101.325,0.14,0.035,0,310.998647837198,22.6824367863437,157.051619890474,13.8685104798546,12.179400078658,0.888294770092908,0.244619642164935,0.0216012421477001,77.5739955689256,7696.18620994707,-9.99628347495841,0.459271756593436,-46.0106769805233,0.565858658779445
"57","STE-2-4-A","STE","STECHLIN","2","4","A",19.1713499673505,-46.9054471309382,2.04064215192052,-51.3575496189346,308.73884342866,-6.13338198584639,400.905800399145,-6.63074315369002,"STE-2-4-A","STE-2-4-A","gleon",20,20,101.325,0.14,0.035,0,276.126570779166,20.8045312505687,171.576489559846,15.1447614359559,10.8137318321327,0.814751804587468,0.267243212832286,0.0235890984487804,68.8756736630531,8407.96557095371,-6.97586967476239,0.477057016958175,-46.1043629357659,0.551021267834173
"58","STE-2-5-A","STE","STECHLIN","2","5","A",21.2987814469793,-46.4180042844197,2.04064215192052,-51.3575496189346,294.198258455492,-6.24550217996632,400.905800399145,-6.63074315369002,"STE-2-5-A","STE-2-5-A","gleon",20,20,101.325,0.14,0.035,0,256.44095837735,19.8460883726426,192.630838427807,16.7985666765913,10.042799383061,0.777217045693876,0.300036935620297,0.0261650237812085,63.9653899050689,9439.71672086236,-7.13039737793614,0.486944113113145,-45.6224693041778,0.546954086239909
"59","STE-3-1-A","STE","STECHLIN","3","1","A",22.9378451978802,-50.8987672575938,2.1049508214968,-52.99858737417,492.022874476041,-9.55930993274895,418.529800591355,-8.15467615065788,"STE-3-1-A","STE-3-1-A","gleon",20,20,101.325,0.14,0.035,0,518.027597233074,33.2821034332826,208.279875997601,18.1533019340681,20.287115080289,1.30340133628305,0.324411481856867,0.02827512525067,123.773168959806,9894.76209470281,-11.0588625071334,0.406661362041204,-50.3799676702879,0.543618222085084
"60","STE-3-2-A","STE","STECHLIN","3","2","A",12.483538754734,-49.3489736107241,2.1049508214968,-52.99858737417,275.022318493793,-6.3174397086069,418.529800591355,-8.15467615065788,"STE-3-2-A","STE-3-2-A","gleon",20,20,101.325,0.14,0.035,0,224.243760893081,18.6351045148218,104.817735320348,9.98096662757536,8.78188538134565,0.729792219265316,0.163261460941846,0.015546101890578,53.5789233111333,4979.58119733236,-6.20211543871823,0.531777715200233,-48.3669273740814,0.591542058174537
"61","STE-3-3-A","STE","STECHLIN","3","3","A",12.531357146297,-48.8310676046139,2.1049508214968,-52.99858737417,317.96025991901,-5.2886208495901,418.529800591355,-8.15467615065788,"STE-3-3-A","STE-3-3-A","gleon",20,20,101.325,0.14,0.035,0,282.374824656227,21.5938535395002,105.29097505,9.93033641338097,11.0584273775667,0.845663424347728,0.163998567209241,0.0154672415458862,67.4682720937076,5002.06341994864,-4.88351074661812,0.491938679475888,-47.7598379597285,0.593121426368166
"62","STE-3-4-A","STE","STECHLIN","3","4","A",13.439016346797,-48.8036494660346,2.1049508214968,-52.99858737417,288.378458691831,-6.38340256771585,418.529800591355,-8.15467615065788,"STE-3-4-A","STE-3-4-A","gleon",20,20,101.325,0.14,0.035,0,242.325825652378,19.4060933390536,114.273719567758,10.5914916743818,9.49001933139089,0.759985859693645,0.177989863517585,0.0164970403055188,57.8993001955865,5428.80709614392,-6.39892689083079,0.517495516148419,-47.786192634165,0.584717907068261
"63","STE-3-5-A","STE","STECHLIN","3","5","A",13.5958200626896,-49.0919632617734,2.1049508214968,-52.99858737417,275.581740096158,-5.8792413070271,418.529800591355,-8.15467615065788,"STE-3-5-A","STE-3-5-A","gleon",20,20,101.325,0.14,0.035,0,225.001127728987,18.5726793645904,115.825543995387,10.9146494763378,8.81154555435592,0.727347511274055,0.180406946107718,0.0170003827475287,53.7598821902469,5502.52969392537,-5.47958585624974,0.530624552322686,-48.1303321163116,0.583332734583744
"64","TIE-1-1-A","TIE","TIEFWAREN","1","1","A",1.9752294293601,-52.4015884211527,1.99983134845764,-53.5574241190394,409.26350043734,-7.57831648623251,413.661296904828,-6.93365264953793,"TIE-1-1-A","TIE-1-1-A","gleon",20,20,101.325,0.14,0.035,0,407.707388114996,28.1468334476518,1.75635587464763,1.58497538232222,15.966729853683,1.10229272021066,0.00273565561355055,0.00246871768106741,98.5606802390311,87.8251996600717,-8.90775489356195,0.425589157498097,-40.3630883471013,2409.58629780766
"65","TIE-1-2-A","TIE","TIEFWAREN","1","2","A",14.1972267619113,-53.3744386192857,1.99983134845764,-53.5574241190394,695.825682250393,-11.8989050362168,413.661296904828,-6.93365264953793,"TIE-1-2-A","TIE-1-2-A","gleon",20,20,101.325,0.14,0.035,0,795.66647302114,47.1796942507228,122.712634921397,11.2060207348821,31.1600721465906,1.84766196208389,0.191134105235734,0.0174542152712044,192.347333186503,6136.14918158167,-13.9103049686073,0.373186876091737,-53.0179081414418,0.56900620914645
"66","TIE-1-3-A","TIE","TIEFWAREN","1","3","A",14.8551338216,-48.8381845147795,1.99983134845764,-53.5574241190394,660.311311041795,-11.7485602227949,413.661296904828,-6.93365264953793,"TIE-1-3-A","TIE-1-3-A","gleon",20,20,101.325,0.14,0.035,0,747.585728842226,44.5611635717036,129.223681171308,11.72031841785,29.2771230614191,1.74511446556001,0.201275546660428,0.0182552723711669,180.724117638258,6461.72894884217,-13.7892692318722,0.382991450325863,-47.8584325574005,0.570621173613694
"67","TIE-1-4-A","TIE","TIEFWAREN","1","4","A",10.8508110269163,-52.79734651767,1.99983134845764,-53.5574241190394,612.995409695665,-11.3403835685044,413.661296904828,-6.93365264953793,"TIE-1-4-A","TIE-1-4-A","gleon",20,20,101.325,0.14,0.035,0,683.527611781512,41.3203166335753,89.594480463086,8.57921238915843,26.7684644502204,1.61819567755994,0.139550103119711,0.0133627648422632,165.238473334568,4480.1018111945,-13.3820340689619,0.384175508289586,-52.3164099894404,0.595073529388723
"68","TIE-1-5-A","TIE","TIEFWAREN","1","5","A",14.5196438465052,-49.1593300250618,1.99983134845764,-53.5574241190394,655.20430873268,-11.6520184902371,413.661296904828,-6.93365264953793,"TIE-1-5-A","TIE-1-5-A","gleon",20,20,101.325,0.14,0.035,0,740.67166945755,44.4807751040698,125.903469430066,11.4798791447914,29.0063530886261,1.74196627402982,0.196104068590857,0.0178807702235353,179.052687548857,6295.70436162875,-13.682449230106,0.387126446651624,-48.207825212442,0.581423158736505
"69","TIE-2-1-A","TIE","TIEFWAREN","2","1","A",15.1850631543542,-49.2213182649791,1.98849417586078,-51.8607392211021,698.974549175625,-12.0094274176615,405.453056883908,-7.20523268495905,"TIE-2-1-A","TIE-2-1-A","gleon",20,20,101.325,0.14,0.035,0,802.833928390775,47.6223735538391,132.58972377776,11.7636891456559,31.4407656708222,1.86499827006043,0.206518409729758,0.0183228255229504,198.009094951934,6667.84571900315,-13.96592935524,0.374784839278506,-48.5391522659711,0.579797990299315
"70","TIE-2-2-A","TIE","TIEFWAREN","2","2","A",15.6150812239326,-46.9978758581191,1.98849417586078,-51.8607392211021,748.763590311555,-12.2115497264249,405.453056883908,-7.20523268495905,"TIE-2-2-A","TIE-2-2-A","gleon",20,20,101.325,0.14,0.035,0,870.240278786484,50.901547683551,136.845442724822,12.3736760217267,34.0805485606222,1.99341803629123,0.213147010228822,0.0192729256967263,214.634040614881,6881.86288831266,-14.1348757960897,0.370250935334112,-46.0392237784778,0.565373412215865
"71","TIE-2-3-A","TIE","TIEFWAREN","2","3","A",5.88606419577871,-51.7827004174753,1.98849417586078,-51.8607392211021,559.121226788268,-10.7243413643842,405.453056883908,-7.20523268495905,"TIE-2-3-A","TIE-2-3-A","gleon",20,20,101.325,0.14,0.035,0,613.495032967793,37.9189170402951,40.5612048471231,4.66885012600033,24.0258326032841,1.4849892898086,0.0631771096815263,0.00727208320385612,151.310989657541,2039.79500365219,-12.6452810817091,0.388732907896301,-51.418663643987,0.717352001846117
"72","TIE-2-4-A","TIE","TIEFWAREN","2","4","A",17.7764099433523,-48.6159311878185,1.98849417586078,-51.8607392211021,771.777088697617,-12.1412819979534,405.453056883908,-7.20523268495905,"TIE-2-4-A","TIE-2-4-A","gleon",20,20,101.325,0.14,0.035,0,901.396852615791,51.6843348068357,158.235259183186,14.0289811367433,35.3007094210836,2.0240737244018,0.246463248874865,0.0218511871956624,222.318425601089,7957.54199856728,-14.0248971431635,0.362712678015231,-47.9231586740371,0.554447103180646
"73","TIE-2-5-A","TIE","TIEFWAREN","2","5","A",17.4087409466406,-48.1468989550989,1.98849417586078,-51.8607392211021,784.218563702708,-12.34437117675,405.453056883908,-7.20523268495905,"TIE-2-5-A","TIE-2-5-A","gleon",20,20,101.325,0.14,0.035,0,918.24060787798,53.1617032216652,154.596584377992,13.6325021532779,35.9603484117733,2.08193076369414,0.240795740768792,0.0212336415305564,226.472730267489,7774.55555337848,-14.245305866154,0.360995317318528,-47.3919155667861,0.55350050551393
"74","TIE-3-1-A","TIE","TIEFWAREN","3","1","A",8.95319903535616,-52.4928541491183,1.95895308707537,-53.0027046324236,751.80821244739,-11.7288803129015,406.758034411207,-7.51035074702118,"TIE-3-1-A","TIE-3-1-A","gleon",20,20,101.325,0.14,0.035,0,873.900455196341,50.3156984582228,71.1782420152995,7.01638034789996,34.2238892251689,1.97047487512102,0.110865434586758,0.0109285370707626,214.845284239151,3633.48374623741,-13.5216503607476,0.371209850888325,-52.0380169779693,0.625905660107656
"75","TIE-3-2-A","TIE","TIEFWAREN","3","2","A",13.1982668963663,-53.5845267428119,1.95895308707537,-53.0027046324236,876.158679190051,-13.155526542198,406.758034411207,-7.51035074702118,"TIE-3-2-A","TIE-3-2-A","gleon",20,20,101.325,0.14,0.035,0,1042.25097856236,59.4908467171,113.190001533623,10.4874812272037,40.8168708724701,2.32979412683805,0.176301891639914,0.0163350362562268,256.233654996156,5778.0863809562,-15.0330821766396,0.362516356712208,-53.3441107523604,0.569115776496397
"76","TIE-3-3-A","TIE","TIEFWAREN","3","3","A",11.6910699513911,-52.9721728990792,1.95895308707537,-53.0027046324236,837.917563409356,-13.6916252064753,406.758034411207,-7.51035074702118,"TIE-3-3-A","TIE-3-3-A","gleon",20,20,101.325,0.14,0.035,0,990.478660979477,57.1252455006237,98.2738688186129,9.26720058292917,38.7893515464977,2.23715191169534,0.153068899520666,0.0144343579012286,243.505616899054,5016.65248989354,-15.6878289477053,0.363302988437038,-52.6367583568139,0.590287142857626
"77","TIE-3-4-A","TIE","TIEFWAREN","3","4","A",12.8053332970641,-53.1954443130246,1.95895308707537,-53.0027046324236,869.90861597926,-13.3388311511576,406.758034411207,-7.51035074702118,"TIE-3-4-A","TIE-3-4-A","gleon",20,20,101.325,0.14,0.035,0,1033.78939864095,57.9958169189114,109.301292937896,10.1219385213014,40.485496546964,2.27124542841674,0.170244937207773,0.0157656761568137,254.153406001528,5579.57684944245,-15.2482876113562,0.361533128885891,-52.8961765502312,0.575719004151032
"78","TIE-3-5-A","TIE","TIEFWAREN","3","5","A",11.4872007569212,-50.8858442309508,1.95895308707537,-53.0027046324236,861.522835543252,-13.2526221064433,406.758034411207,-7.51035074702118,"TIE-3-5-A","TIE-3-5-A","gleon",20,20,101.325,0.14,0.035,0,1022.43640124404,58.4387654133249,96.2562559436974,9.10817755216543,40.0408878698827,2.28859227852435,0.149926316592624,0.0141866676392081,251.362312418497,4913.65804412416,-15.1589533482657,0.363172929142858,-50.1725682578736,0.598879331173818
