"","SampleName","lake","lakename","campaign","location","duplicate","pCH4.meas","iso.CH4.meas","pCH4.head","iso.CH4.head","pCO2.meas","iso.CO2.meas","pCO2.head","iso.CO2.head","ID","ID.rep","Sample.type","temp.in","temp.sam","atm","vol.tot","vol.head","sal","pCO2.insitu","pCO2.insitu.error","pCH4.insitu","pCH4.insitu.error","conc.CO2.insitu","conc.CO2.insitu.error","conc.CH4.insitu","conc.CH4.insitu.error","sat.CO2.insitu","sat.CH4.insitu","iso.CO2.insitu","iso.CO2.insitu.error","iso.CH4.insitu","iso.CH4.insitu.error"
"1","BLU-1-1-A","BLU","BREITER LUZIN","1","1","A",29.4866469702124,-50.0508123466685,2.1021626441434,-52.77087898189,462.288569339275,-8.33296211371763,435.512055827723,-7.96635303017197,"BLU-1-1-A","BLU-1-1-A","gleon",20,20,101.325,0.14,0.035,0,471.763146649246,31.1811169521449,273.115585210807,23.3740650042703,18.4752960997296,1.22112202384365,0.425397947315197,0.0364068541366974,108.323785837025,12992.1243711424,-9.55071478425319,0.420040223441169,-49.5345505965225,0.532251210499629
"2","BLU-1-2-A","BLU","BREITER LUZIN","1","2","A",27.1569302862462,-49.9258254973898,2.1021626441434,-52.77087898189,421.983349477693,-8.15744255647795,435.512055827723,-7.96635303017197,"BLU-1-2-A","BLU-1-2-A","gleon",20,20,101.325,0.14,0.035,0,417.196364265374,29.1342262344062,250.059299592483,21.321823381193,16.3383393049652,1.14096122204595,0.389486058335382,0.0332103343438849,95.7944467168563,11895.33551503,-9.32602592261472,0.427388918082061,-49.3830419502403,0.540637337724868
"3","BLU-1-3-A","BLU","BREITER LUZIN","1","3","A",3.08164729471084,-53.7467261593349,2.1021626441434,-52.77087898189,346.115656839852,-12.6976192962069,435.512055827723,-7.96635303017197,"BLU-1-3-A","BLU-1-3-A","gleon",20,20,101.325,0.14,0.035,0,314.483715919756,23.5143740061502,11.7957352650853,2.43493246905651,12.3158831108963,0.920875285509344,0.0183727397503429,0.00379258940271849,72.2101057161452,561.123816843956,-16.1140025162434,0.49831442495544,-54.9639295658653,1.40807436388957
"4","BLU-1-4-A","BLU","BREITER LUZIN","1","4","A",16.2992980197876,-51.9456297581813,2.1021626441434,-52.77087898189,346.022948506269,-12.3106970281762,435.512055827723,-7.96635303017197,"BLU-1-4-A","BLU-1-4-A","gleon",20,20,101.325,0.14,0.035,0,314.358203753313,23.7994971985381,142.605602584138,12.8499093056805,12.3109677747671,0.932041345091743,0.222118889949525,0.0200146946488012,72.1812862690682,6783.75686017617,-15.5383331546126,0.494697209951577,-51.5074018770405,0.566233106894505
"5","BLU-1-5-B","BLU","BREITER LUZIN","1","5","B",11.7917026967931,-53.3493431425271,2.1021626441434,-52.77087898189,395.118729150049,-7.28006877330886,435.512055827723,-7.96635303017197,"BLU-1-5-B","BLU-1-5-B","gleon",20,20,101.325,0.14,0.035,0,380.825990991684,26.6720234444611,97.9957124914748,9.27418893756981,14.9139944398316,1.04453587401926,0.152635650240857,0.0144452427861645,87.4432718671579,4661.66177790714,-8.10036393081861,0.444814720223348,-53.129740836485,0.591523575123206
"6","BLU-2-1-A","BLU","BREITER LUZIN","2","1","A",20.17311182,-52.3703092732268,2.04885618596955,-51.637094287854,376.795653992628,-7.81487739804124,397.430882933564,-7.67650406749728,"BLU-2-1-A","BLU-2-1-A","gleon",20,20,101.325,0.14,0.035,0,369.494103257672,25.5780689000109,181.417453832914,15.7047283525226,14.4702124641903,1.00169417629041,0.282571250586462,0.0244612887951792,92.9706570688009,8854.57237434477,-8.96554121220018,0.432104268226521,-52.1139788280884,0.557515920741777
"7","BLU-2-2-A","BLU","BREITER LUZIN","2","2","A",26.6815025965182,-52.5485583313886,2.04885618596955,-51.637094287854,377.877106992228,-7.97186504891918,397.430882933564,-7.67650406749728,"BLU-2-2-A","BLU-2-2-A","gleon",20,20,101.325,0.14,0.035,0,370.958216608007,25.4883373139746,245.828426073364,21.0041339053787,14.5275504056195,0.998180087423367,0.382896156448259,0.0327155092287575,93.3390515276131,11998.3251024051,-9.18183347014686,0.428643850924673,-52.2861422269185,0.541640435083991
"8","BLU-2-3-A","BLU","BREITER LUZIN","2","3","A",26.078889973399,-52.9049560461347,2.04885618596955,-51.637094287854,411.099122539223,-5.89012950857462,397.430882933564,-7.67650406749728,"BLU-2-3-A","BLU-2-3-A","gleon",20,20,101.325,0.14,0.035,0,415.935480072446,27.4899652687843,239.864607016968,20.3851521831591,16.2889602702159,1.07656829856123,0.373607062298644,0.0317513989094778,104.656054155201,11707.2446889902,-6.38416143192409,0.425883637914676,-52.6713037818146,0.534624974786381
"9","BLU-2-4-A","BLU","BREITER LUZIN","2","4","A",16.6672155266166,-51.0171947379223,2.04885618596955,-51.637094287854,360.938974970674,-7.32743734972487,397.430882933564,-7.67650406749728,"BLU-2-4-A","BLU-2-4-A","gleon",20,20,101.325,0.14,0.035,0,348.026711279824,24.7052919203984,146.720983294335,13.1057888923751,13.6295015564038,0.967514284872654,0.228528903150298,0.0204132462395341,87.5691160965972,7161.11673913824,-8.28439053203372,0.437317705910301,-50.6101815904976,0.560846538014954
"10","BLU-2-5-A","BLU","BREITER LUZIN","2","5","A",22.7386912826166,-52.6802082431606,2.04885618596955,-51.637094287854,344.066983530207,-7.42589267331813,397.430882933564,-7.67650406749728,"BLU-2-5-A","BLU-2-5-A","gleon",20,20,101.325,0.14,0.035,0,325.184749656089,23.5237156401116,206.807980189058,18.0118290102018,12.7349594381935,0.921241124712166,0.322118894067954,0.0280547705925242,81.821711301295,10093.8260872221,-8.41551543759491,0.452272891012623,-52.4421473421343,0.541231767954028
"11","BLU-3-1-A","BLU","BREITER LUZIN","3","1","A",12.1732400153842,-53.7682571091576,1.97394515846059,-51.827142759404,583.590797589851,-17.9615942134926,393.557806701872,-7.56684890769927,"BLU-3-1-A","BLU-3-1-A","gleon",20,20,101.325,0.14,0.035,0,650.831899118486,39.0625810189436,102.912336914484,9.65053399170806,25.4880274832138,1.52977771975316,0.160293660440654,0.0150314283507454,165.37136045468,5213.53576989656,-21.2837201215935,0.399583960740572,-53.7694973318103,0.583468092638479
"12","BLU-3-2-A","BLU","BREITER LUZIN","3","2","A",17.1331068316856,-51.0458353028041,1.97394515846059,-51.827142759404,407.546313758763,-8.40453009955568,393.557806701872,-7.56684890769927,"BLU-3-2-A","BLU-3-2-A","gleon",20,20,101.325,0.14,0.035,0,412.495994437108,27.5109158201107,151.998179297173,13.7180497153301,16.1542623481867,1.07738876883738,0.236748530548913,0.0213668882556261,104.812047280663,7700.2230100309,-9.78532617364363,0.425054896910959,-50.6255654007428,0.563741891930546
"13","BLU-3-3-A","BLU","BREITER LUZIN","3","3","A",16.378624550684,-50.1506688420881,1.97394515846059,-51.827142759404,398.387379233679,-8.58784641304767,393.557806701872,-7.56684890769927,"BLU-3-3-A","BLU-3-3-A","gleon",20,20,101.325,0.14,0.035,0,400.096270807893,27.0192121396056,144.531366235972,12.9913331141806,15.6686615393238,1.05813255699638,0.225118410844212,0.0202349728060913,101.661373245475,7321.95449384658,-10.0412113090988,0.420351433566874,-49.6169674106041,0.570877915681365
"14","BLU-3-4-A","BLU","BREITER LUZIN","3","4","A",9.60948019655517,-51.058966876803,1.97394515846059,-51.827142759404,381.646145907242,-8.97226569159951,393.557806701872,-7.56684890769927,"BLU-3-4-A","BLU-3-4-A","gleon",20,20,101.325,0.14,0.035,0,377.431334630927,25.6299710019036,77.5398188540176,7.6309389137539,14.7810521320925,1.00372677825916,0.120774066226324,0.011885757993243,95.9023879602112,3928.16479838214,-10.5888048162074,0.4362726517243,-50.554988500272,0.616215304553159
"15","BLU-3-5-A","BLU","BREITER LUZIN","3","5","A",9.40424850744652,-51.1363576464752,1.97394515846059,-51.827142759404,395.310352650396,-8.82916142701733,393.557806701872,-7.56684890769927,"BLU-3-5-A","BLU-3-5-A","gleon",20,20,101.325,0.14,0.035,0,395.930471922885,26.5926128631668,75.5087219079442,7.50155125438286,15.5055195719211,1.04142597869725,0.117610480849126,0.0116842270382743,100.602875913172,3825.26949060888,-10.3711403048304,0.428523995456479,-50.6456985803407,0.618147862003526
"16","GFU-1-1-A","GFU","GROSSE FUCHSKUHLE","1","1","A",18.8697147295155,-43.0891968283402,1.98396413121831,-52.5313451847432,496.965234706701,-10.3238130368454,412.09511082281,-7.26158169822062,"GFU-1-1-A","GFU-1-1-A","gleon",20,20,101.325,0.14,0.035,0,526.995602539982,33.8478256752604,169.095566736609,14.7247008289739,20.6383221524096,1.32555627993428,0.263378990013812,0.0229348226416339,127.882032254097,8523.11612270789,-12.2691073335071,0.401810665745812,-41.7736058496302,0.55940852549876
"17","GFU-1-2-A","GFU","GROSSE FUCHSKUHLE","1","2","A",9.20897190875813,-33.8716354611577,1.98396413121831,-52.5313451847432,288.896814266699,-5.11422976766798,412.09511082281,-7.26158169822062,"GFU-1-2-A","GFU-1-2-A","gleon",20,20,101.325,0.14,0.035,0,245.304440499517,19.6371813376495,73.4870117163728,7.22674410475893,9.60666852634987,0.769035780675132,0.114461516043999,0.0112561943528919,59.5261710360333,3704.0494109763,-4.93578774112357,0.511498226198581,-29.0598360279885,0.759480611633235
"18","GFU-1-3-A","GFU","GROSSE FUCHSKUHLE","1","3","A",17.1437556624308,-34.411843352,1.98396413121831,-52.5313451847432,273.957557863231,-4.97703846777385,412.09511082281,-7.26158169822062,"GFU-1-3-A","GFU-1-3-A","gleon",20,20,101.325,0.14,0.035,0,225.079091129274,18.6065512846003,152.014431725595,13.7376928634781,8.8145987748448,0.728674011141823,0.236773844921522,0.0213974839277644,54.618238658515,7662.15625240394,-4.59501873598379,0.539004984524049,-31.9779701861353,0.586987145447789
"19","GFU-1-4-A","GFU","GROSSE FUCHSKUHLE","1","4","A",18.3802730556943,-35.2656901993627,1.98396413121831,-52.5313451847432,276.514413609067,-5.8256640228974,412.09511082281,-7.26158169822062,"GFU-1-4-A","GFU-1-4-A","gleon",20,20,101.325,0.14,0.035,0,228.540662398434,18.5596929635831,164.251755854884,14.5421336293604,8.95016161951015,0.726838934871716,0.2558343923495,0.0226504605760171,55.4582319460472,8278.96801511332,-6.00750821879416,0.520216385628814,-33.0803175131842,0.575278154729165
"20","GFU-1-5-A","GFU","GROSSE FUCHSKUHLE","1","5","A",11.7711340406946,-29.3680019711477,1.98396413121831,-52.5313451847432,240.269214678276,-6.08574861054532,412.09511082281,-7.26158169822062,"GFU-1-5-A","GFU-1-5-A","gleon",20,20,101.325,0.14,0.035,0,179.470495077457,16.1218340885694,98.8437181008626,9.326709297658,7.0284645192651,0.631366948801723,0.153956482390611,0.0145270471744294,43.5507460205283,4982.13231507189,-6.22841316004241,0.580709381358011,-24.9017185410823,0.715504195184344
"21","GFU-2-1-A","GFU","GROSSE FUCHSKUHLE","2","1","A",20.2971188787732,-35.7770368574536,1.99331163564057,-52.202115292402,386.058828165773,-6.48247446820671,405.564397090066,-6.98633404648449,"GFU-2-1-A","GFU-2-1-A","gleon",20,20,101.325,0.14,0.035,0,379.156995308839,26.0635273554571,183.138860622282,16.0449846987573,14.8486328497016,1.02070581120125,0.285252470386228,0.0249912634985177,93.4887278146945,9187.66826760779,-7.38977210078128,0.439558710592116,-33.8565633062583,0.563750861887958
"22","GFU-2-2-A","GFU","GROSSE FUCHSKUHLE","2","2","A",28.5449448229278,-37.5158283543814,1.99331163564057,-52.202115292402,479.620098605773,-8.0296309952701,405.564397090066,-6.98633404648449,"GFU-2-2-A","GFU-2-2-A","gleon",20,20,101.325,0.14,0.035,0,505.823901014626,32.1334608967122,264.764335516895,22.6021180725894,19.8091911416592,1.25841793491605,0.412390251417636,0.0352044890650744,124.720982572416,13282.6363315644,-9.42361908053866,0.398089735578391,-36.2021524522199,0.543377173469177
"23","GFU-2-3-A","GFU","GROSSE FUCHSKUHLE","2","3","A",22.1770983357668,-32.7853939119844,1.99331163564057,-52.202115292402,346.206778079171,-5.4064104219601,405.564397090066,-6.98633404648449,"GFU-2-3-A","GFU-2-3-A","gleon",20,20,101.325,0.14,0.035,0,325.203731883038,23.4019105272936,201.744274583276,17.7054726734619,12.7357028245008,0.916470965063714,0.314231793927385,0.0275775976889875,80.1854734331667,10121.0603989899,-5.80722834939646,0.464122022832779,-30.7486271075855,0.565890191054415
"24","GFU-2-4-A","GFU","GROSSE FUCHSKUHLE","2","4","A",21.214789545114,-30.0205203684456,1.99331163564057,-52.202115292402,334.173856131503,-5.58008615199223,405.564397090066,-6.98633404648449,"GFU-2-4-A","GFU-2-4-A","gleon",20,20,101.325,0.14,0.035,0,308.913091722397,22.5543882724985,192.22068466223,16.5906132180676,12.0977250537494,0.883280104947436,0.299398090459463,0.0258411207189764,76.1686908266248,9643.28312870443,-6.02481841556848,0.463533256687144,-27.6441126864815,0.577687623764082
"25","GFU-2-5-A","GFU","GROSSE FUCHSKUHLE","2","5","A",16.1025607699689,-28.6320517341089,1.99331163564057,-52.202115292402,275.128938014301,-4.46462038420777,405.564397090066,-6.98633404648449,"GFU-2-5-A","GFU-2-5-A","gleon",20,20,101.325,0.14,0.035,0,228.975773210313,18.8837636353155,141.626976166615,12.7821127820749,8.96720152850419,0.739530264535805,0.220594606123388,0.0199090964935196,56.4585488403862,7105.1095892039,-3.98220271743409,0.528758150117611,-25.3507454804468,0.625891636891383
"26","GFU-3-1-A","GFU","GROSSE FUCHSKUHLE","3","1","A",112.243109542332,-34.6756938828497,2.38894607954802,-55.4093824132252,2005.38734073627,-11.9686432169534,471.361900795792,-9.64712203981165,"GFU-3-1-A","GFU-3-1-A","gleon",20,20,101.325,0.14,0.035,0,2548.18551421422,136.781487403208,1089.57220170525,88.631538659377,99.792623112954,5.3566678505614,1.69709018143127,0.138050249252472,540.600653110097,45608.9072513263,-13.2185936350249,0.334139001671419,-33.9412565772931,0.511775158162933
"27","GFU-3-2-A","GFU","GROSSE FUCHSKUHLE","3","2","A",95.061595189,-33.3294973853855,2.38894607954802,-55.4093824132252,1826.86766069271,-12.0639960224167,471.361900795792,-9.64712203981165,"GFU-3-2-A","GFU-3-2-A","gleon",20,20,101.325,0.14,0.035,0,2306.49859213243,124.01731877899,919.533542063887,74.9965929351006,90.32762466912,4.85679456356503,1.43224225369462,0.116812801677357,489.326478919575,38491.1802713379,-13.3367636958897,0.334955492573729,-32.4891570617283,0.514812060899084
"28","GFU-3-3-A","GFU","GROSSE FUCHSKUHLE","3","3","A",78.6658908170052,-31.1895635751282,2.38894607954802,-55.4093824132252,1572.08976029333,-12.4370887112872,471.361900795792,-9.64712203981165,"GFU-3-3-A","GFU-3-3-A","gleon",20,20,101.325,0.14,0.035,0,1961.57031001273,104.102118103968,757.271733357286,62.4376041070311,76.8194645031658,4.07687092610014,1.17950735283511,0.0972512374272188,416.149524749676,31698.9880952256,-13.7723109652103,0.33791318004234,-30.1798126663183,0.513606718861419
"29","GFU-3-4-A","GFU","GROSSE FUCHSKUHLE","3","4","A",72.2735720589533,-28.9725182236943,2.38894607954802,-55.4093824132252,1669.47031877824,-10.9146148468756,471.361900795792,-9.64712203981165,"GFU-3-4-A","GFU-3-4-A","gleon",20,20,101.325,0.14,0.035,0,2093.40791718903,114.002708245699,694.009480026939,56.9229170416174,81.9825189870994,4.46460009852435,1.08097166257602,0.0886616999392651,444.119033306418,29050.8641433315,-12.1135986990011,0.336683659689975,-27.8329094798635,0.512983363494727
"30","GFU-3-5-A","GFU","GROSSE FUCHSKUHLE","3","5","A",67.5056884643918,-30.7732995361855,2.38894607954802,-55.4093824132252,1622.36681126237,-10.4006451336639,471.361900795792,-9.64712203981165,"GFU-3-5-A","GFU-3-5-A","gleon",20,20,101.325,0.14,0.035,0,2029.63734719928,109.60602731615,646.823619742855,53.7262023021697,79.4851213599694,4.2924162757599,1.00747615666537,0.0836825776849871,430.59002939624,27075.689371157,-11.5605661981192,0.338799431398558,-29.6338003084574,0.518313817700099
"31","OPE-1-2-A","OPE","OPEONGO","1","2","A",3.97095381950739,-53.0277615519803,2.02403761658473,-51.109973044963,420.339023930296,-8.57420229830098,407.863887380985,-7.1175448154101,"OPE-1-2-A","OPE-1-2-A","gleon",20,20,101.325,0.14,0.035,0,424.753214957739,28.4568836366938,21.2918981072885,3.13677716727135,16.6342824177635,1.11443497652936,0.0331637234919924,0.00488576500353306,104.140922523248,1051.95169955465,-10.1671300875697,0.419899959720368,-54.3196807610119,0.96080216628754
"32","OPE-1-3-A","OPE","OPEONGO","1","3","A",3.60802342097981,-52.8160694432907,2.02403761658473,-51.109973044963,425.288330185172,-8.28582357129162,407.863887380985,-7.1175448154101,"OPE-1-3-A","OPE-1-3-A","gleon",20,20,101.325,0.14,0.035,0,431.453779259048,28.6832799174399,17.7001193362416,2.87627767615196,16.8966914473395,1.12330115938482,0.0275692594659489,0.00448001756618596,105.78376576302,874.495572177555,-9.77460442011575,0.420233079879326,-54.2217518309512,1.07839734102308
"33","OPE-1-4-A","OPE","OPEONGO","1","4","A",3.52756253265764,-52.1118128462167,2.02403761658473,-51.109973044963,399.655342510295,-7.72903160309063,407.863887380985,-7.1175448154101,"OPE-1-4-A","OPE-1-4-A","gleon",20,20,101.325,0.14,0.035,0,396.750838421435,27.0919432842579,16.9038297122596,2.79045532866888,15.537646952109,1.06098087069503,0.0263289788307414,0.00434634284225946,97.2753045063857,835.153930626169,-9.04946003206971,0.429059984749049,-52.8490380112209,1.08145516310065
"34","OPE-1-5-A","OPE","OPEONGO","1","5","A",4.23101686378276,-53.172238057867,2.02403761658473,-51.109973044963,429.809444881379,-8.26561139141576,407.863887380985,-7.1175448154101,"OPE-1-5-A","OPE-1-5-A","gleon",20,20,101.325,0.14,0.035,0,437.574641088054,29.7685302619201,23.865639313183,3.36434988803103,17.1363980362912,1.16580198124642,0.0371725178823343,0.00524022653380926,107.284477647151,1179.11046304825,-9.74225967981616,0.418088783703784,-54.3982548734429,0.916727266139949
"35","OPE-1-6-A","OPE","OPEONGO","1","6","A",3.88072858153872,-52.8146338589216,2.02403761658473,-51.109973044963,463.963390845294,-8.45851055631372,407.863887380985,-7.1175448154101,"OPE-1-6-A","OPE-1-6-A","gleon",20,20,101.325,0.14,0.035,0,483.813588384801,31.306432634194,20.398974572464,3.05983811925283,18.947218251297,1.22602966520614,0.0317729283144467,0.00476592668280816,118.621335046726,1007.83574402557,-9.95651120045584,0.413322131306223,-53.9894121811913,0.985499267538137
"36","OPE-2-1-A","OPE","OPEONGO","2","1","A",5.80068190444554,-52.8951298575248,1.96365781883128,-51.6173855009828,447.120763307674,-8.20149753629109,410.984316538177,-6.61810741449606,"OPE-2-1-A","OPE-2-1-A","gleon",20,20,101.325,0.14,0.035,0,459.907250931522,30.2802996416271,39.9371692982171,4.59464257466657,18.0109928037468,1.18584401058257,0.0622051276492618,0.0071564993934767,111.903844605418,2033.81510338633,-9.8001642737112,0.411163974177568,-53.1240590700093,0.730584002257482
"37","OPE-2-2-A","OPE","OPEONGO","2","2","A",7.32096058458424,-51.5699842941232,1.96365781883128,-51.6173855009828,468.519781509409,-7.99032200850985,410.984316538177,-6.61810741449606,"OPE-2-2-A","OPE-2-2-A","gleon",20,20,101.325,0.14,0.035,0,488.878078369075,31.4907903657514,54.9827667779292,5.78882239692668,19.1455549647901,1.23324952479668,0.0856397708207969,0.00901652376639036,118.952976718678,2800.01771442305,-9.49650277336079,0.401883942896758,-51.2249233247433,0.655967304257236
"38","OPE-2-3-A","OPE","OPEONGO","2","3","A",4.23324948731773,-53.9537221200098,1.96365781883128,-51.6173855009828,434.974858793498,-7.50824131638424,410.984316538177,-6.61810741449606,"OPE-2-3-A","OPE-2-3-A","gleon",20,20,101.325,0.14,0.035,0,443.463650555281,29.2974879681211,24.4249099125855,3.3662045267251,17.3670247700959,1.14735491535065,0.0380436236626798,0.00524311527226357,107.902815925115,1243.84756235802,-8.89813747463738,0.422233703621424,-55.2947841142823,0.897712744440832
"39","OPE-2-4-A","OPE","OPEONGO","2","4","A",4.55438706893367,-52.9181546940694,1.96365781883128,-51.6173855009828,433.240922639703,-8.35789896314108,410.984316538177,-6.61810741449606,"OPE-2-4-A","OPE-2-4-A","gleon",20,20,101.325,0.14,0.035,0,441.116180001924,29.260789262706,27.6030816857769,3.59180707439359,17.2750925921233,1.14591771226721,0.0429938638603865,0.00559450811062239,107.331633410626,1405.69713424947,-10.0294542586449,0.417292682221471,-53.4114066829286,0.833781459535812
"40","OPE-2-5-A","OPE","OPEONGO","2","5","A",4.67246035745025,-54.3416130324236,1.96365781883128,-51.6173855009828,434.879536293202,-7.65496745019508,410.984316538177,-6.61810741449606,"OPE-2-5-A","OPE-2-5-A","gleon",20,20,101.325,0.14,0.035,0,443.334599227742,29.2488011091155,28.7716063749243,3.73181959563499,17.3619708325315,1.1454482294582,0.0448139284450082,0.0058125880824722,107.871415377127,1465.20468581682,-9.09307758545194,0.41954662689282,-55.6657420643093,0.843159611011798
"41","OPE-2-6-A","OPE","OPEONGO","2","6","A",5.02244658927079,-53.60547662901,1.96365781883128,-51.6173855009828,411.072771126634,-7.3336690676307,410.984316538177,-6.61810741449606,"OPE-2-6-A","OPE-2-6-A","gleon",20,20,101.325,0.14,0.035,0,411.104069818168,27.7342066563096,32.2352818419331,3.95335882728702,16.0997514783443,1.08613333556421,0.0502088619955571,0.00615765200228409,100.029138162984,1641.59363881019,-8.68478900094163,0.428633314684692,-54.3529211872289,0.790202749780549
"42","OPE-3-1-A","OPE","OPEONGO","3","1","A",10.3159175444853,-50.3708778282648,1.99052924508882,-52.5647918561536,472.715414103872,-11.0316670068471,406.453097230026,-7.32298111270291,"OPE-3-1-A","OPE-3-1-A","gleon",20,20,101.325,0.14,0.035,0,496.161612343542,32.211763477826,84.3836081269134,8.17496737286989,19.4307943858566,1.26148443848193,0.131433779791555,0.012733123000298,122.071062005648,4239.254878325,-13.204678593631,0.411499663132871,-49.5804576149228,0.607985314966437
"43","OPE-3-2-A","OPE","OPEONGO","3","2","A",7.24925645034728,-54.036057517729,1.99052924508882,-52.5647918561536,497.129668996257,-10.8511014015891,406.453097230026,-7.32298111270291,"OPE-3-2-A","OPE-3-2-A","gleon",20,20,101.325,0.14,0.035,0,529.214585093777,33.8092576006409,54.0340748262922,5.73783514002555,20.7252224539967,1.32404586818709,0.0841621121637512,0.00893710730098348,130.203112905368,2714.5581990121,-12.907900974387,0.402002767111966,-54.1882453500543,0.670504293144788
"44","OPE-3-3-A","OPE","OPEONGO","3","3","A",4.76218130857242,-52.1955438783202,1.99052924508882,-52.5647918561536,498.616132282956,-10.7003412471704,406.453097230026,-7.32298111270291,"OPE-3-3-A","OPE-3-3-A","gleon",20,20,101.325,0.14,0.035,0,531.227017204692,34.0689801966905,29.4204747187589,3.78147256627745,20.8040337799636,1.3342171838142,0.0458245894123492,0.00588992629725441,130.698233283249,1478.02273145935,-12.7126933571218,0.408667017214571,-51.6432838744791,0.811356670921471
"45","OPE-3-4-A","OPE","OPEONGO","3","4","A",5.02829048081782,-51.5390672099802,1.99052924508882,-52.5647918561536,512.827395667079,-9.74954983971287,406.453097230026,-7.32298111270291,"OPE-3-4-A","OPE-3-4-A","gleon",20,20,101.325,0.14,0.035,0,550.466781164409,34.7565666645753,32.0540520645244,3.99517510595571,21.5575058105141,1.36114460211418,0.0499265830650356,0.00622278398329606,135.431808716881,1610.32811467657,-11.4815330159085,0.399395195793406,-50.6423835099292,0.77874748757852
"46","OPE-3-5-A","OPE","OPEONGO","3","5","A",4.84634263977647,-53.0602721840392,1.99052924508882,-52.5647918561536,496.536937587353,-10.2873466941324,406.453097230026,-7.32298111270291,"OPE-3-5-A","OPE-3-5-A","gleon",20,20,101.325,0.14,0.035,0,528.412122139528,33.6314371799969,30.2533861640061,3.81666075298682,20.6937962165,1.31708202425966,0.0471219112727258,0.0059447345293967,130.005682264609,1519.86644952088,-12.192164070503,0.404969779292194,-53.0203037673278,0.807682970493209
"47","OPE-3-6-A","OPE","OPEONGO","3","6","A",3.97465599932365,-52.0801924179951,1.99052924508882,-52.5647918561536,466.446408017143,-10.6612590266542,406.453097230026,-7.32298111270291,"OPE-3-6-A","OPE-3-6-A","gleon",20,20,101.325,0.14,0.035,0,487.674386816116,31.616463370542,21.6266478613292,3.10186780203305,19.0984157212701,1.23817115971399,0.0336851212662104,0.004831391056682,119.982942715805,1086.47727305128,-12.7437433286868,0.41333062819404,-51.3533788023609,0.920138847049339
"48","SRO-1-1-A","SRO","SAN ROQUE","1","1","A",28.8244930753299,-22.1321538376289,2.27030434634975,-47.6643308999015,783.853890379793,-13.7651331882629,457.588214301404,-8.06797189368399,"SRO-1-1-A","SRO-1-1-A","gleon",20,20,101.325,0.14,0.035,0,899.299441954718,53.2655549001433,265.06661941412,22.7301796973419,35.2185701457263,2.08599782684641,0.412861081192094,0.0354039546219649,196.530289427946,11675.3782302492,-15.888867390757,0.381083447060789,-19.8566092237637,0.571395042047358
"49","SRO-1-2-A","SRO","SAN ROQUE","1","2","A",16.4834044049382,-21.7568763890412,2.27030434634975,-47.6643308999015,1006.13512251608,-13.3861323765258,457.588214301404,-8.06797189368399,"SRO-1-2-A","SRO-1-2-A","gleon",20,20,101.325,0.14,0.035,0,1200.23246412044,68.3962875399003,142.931740446265,12.9566003285091,47.00377789285,2.67855103434228,0.222626874058097,0.02018087389512,262.295318500024,6295.70835628598,-15.2015577211449,0.357281333582118,-17.7658366066661,0.668122333160342
"50","SRO-1-3-A","SRO","SAN ROQUE","1","3","A",15.6059419916166,-19.6213528282384,2.27030434634975,-47.6643308999015,1011.88136483938,-13.2851211367772,457.588214301404,-8.06797189368399,"SRO-1-3-A","SRO-1-3-A","gleon",20,20,101.325,0.14,0.035,0,1208.01195162745,69.0097870083898,134.247841601345,12.4283501659625,47.3084399594335,2.70257704065047,0.209101052232621,0.0193580847648593,263.99542511638,5913.20902931766,-15.0823875601217,0.356599987674034,-15.0722004913841,0.704806151435704
"51","SRO-1-4-A","SRO","SAN ROQUE","1","4","A",23.1094285821753,-19.6969618999897,2.27030434634975,-47.6643308999015,1296.84944299227,-13.9990423643918,457.588214301404,-8.06797189368399,"SRO-1-4-A","SRO-1-4-A","gleon",20,20,101.325,0.14,0.035,0,1593.81287667687,87.4947388605434,208.506883980117,18.2881642299288,62.4172639031089,3.42648894704553,0.324765063765098,0.0284851833613599,348.307239317807,9184.09394385202,-15.6995692059937,0.344727748484861,-16.6577710486738,0.602326599301096
"52","SRO-1-5-A","SRO","SAN ROQUE","1","5","A",21.3836287124072,-20.0683555917835,2.27030434634975,-47.6643308999015,1354.48480784175,-13.671633002299,457.588214301404,-8.06797189368399,"SRO-1-5-A","SRO-1-5-A","gleon",20,20,101.325,0.14,0.035,0,1671.84188686854,91.651088103812,191.427324482051,16.7228283893746,65.4730538220525,3.58926084542013,0.298162372652041,0.0260470557352242,365.359472691168,8431.79130541826,-15.3123298594869,0.343694143454307,-16.8266316050166,0.60692746036681
"53","SRO-1-6-A","SRO","SAN ROQUE","1","6","A",19.2116476589124,-19.9048254495464,2.27030434634975,-47.6643308999015,1180.12558585773,-13.7700563609072,457.588214301404,-8.06797189368399,"SRO-1-6-A","SRO-1-6-A","gleon",20,20,101.325,0.14,0.035,0,1435.78755556114,80.1452711455738,169.932086081771,15.2075370186597,56.2286401846085,3.13866741377425,0.264681931448102,0.0236868761131458,313.772844379995,7484.99144420844,-15.511075807623,0.348128178541255,-16.2753513637799,0.645093622595744
"54","SRO-2-1-A","SRO","SAN ROQUE","2","1","A",21.8622361971753,-31.0961467966392,1.91588132086034,-53.0346608118519,620.338365999897,-13.1645179298454,445.645637346564,-6.9984190723916,"SRO-2-1-A","SRO-2-1-A","gleon",20,20,101.325,0.14,0.035,0,682.151483021337,41.9189296373647,199.317075310601,17.1145798146697,26.7145721814068,1.64163869673749,0.310451249556312,0.0266572378749571,153.070382800774,10403.414509052,-15.6878797796641,0.393858183494795,-28.8900484083784,0.568268454795458
"55","SRO-2-2-A","SRO","SAN ROQUE","2","2","A",25.0873465852917,-35.1631063341041,1.91588132086034,-53.0346608118519,290.295581011458,-11.0645684513271,445.645637346564,-6.9984190723916,"SRO-2-2-A","SRO-2-2-A","gleon",20,20,101.325,0.14,0.035,0,235.326657659272,19.6084674029192,231.234718675047,19.6660772990304,9.21591631583565,0.767911279004962,0.36016536587045,0.0306313860056439,52.8057806333389,12069.3654746428,-14.8871993523245,0.578493504794811,-33.5157532388288,0.548269565968761
"56","SRO-2-3-A","SRO","SAN ROQUE","2","3","A",40.903930561933,-34.9855621112371,1.91588132086034,-53.0346608118519,300.599961854691,-12.3076322053423,445.645637346564,-6.9984190723916,"SRO-2-3-A","SRO-2-3-A","gleon",20,20,101.325,0.14,0.035,0,249.277131295298,20.3249660333527,387.765201622357,32.4857685272522,9.76224795065637,0.79597096201821,0.603973298276232,0.0505990137391212,55.9361767299077,20239.5209661645,-16.7641155345675,0.575284472764229,-33.8621851299486,0.52202280392372
"57","SRO-2-4-A","SRO","SAN ROQUE","2","4","A",35.990196845943,-34.3812827781192,1.91588132086034,-53.0346608118519,289.919658456321,-11.6907101074518,445.645637346564,-6.9984190723916,"SRO-2-4-A","SRO-2-4-A","gleon",20,20,101.325,0.14,0.035,0,234.81771900741,19.8048203305608,339.135920307611,28.5578282129803,9.1959851441099,0.775600897204251,0.528229556172541,0.0444809529716328,52.6915780900599,17701.3010469417,-15.9397184351922,0.592969727475938,-33.1137712668342,0.531988578821614
"58","SRO-2-5-A","SRO","SAN ROQUE","2","5","A",25.7997201855751,-33.3540903072435,1.91588132086034,-53.0346608118519,216.19069902456,-9.7341311261886,445.645637346564,-6.9984190723916,"SRO-2-5-A","SRO-2-5-A","gleon",20,20,101.325,0.14,0.035,0,135.0005712901,14.4771642096558,238.284798759088,20.5178005021031,5.28692320697881,0.566958011361286,0.371146392800289,0.0319580085855606,30.293255442578,12437.3465185247,-14.0275680752272,0.780414451918159,-31.6163120460108,0.553989604036805
"59","SRO-2-6-A","SRO","SAN ROQUE","2","6","A",7.134735289301,-22.1781682128069,1.91588132086034,-53.0346608118519,890.032791265792,-13.4879989560198,445.645637346564,-6.9984190723916,"SRO-2-6-A","SRO-2-6-A","gleon",20,20,101.325,0.14,0.035,0,1047.27433966787,60.6133476050188,53.564817230027,5.68945852563461,41.0135968874194,2.3737537629898,0.0834312083668874,0.00886175710650784,235.001591377285,2795.83169619157,-15.5631272639298,0.362545867366197,-12.0293359658468,1.28049177490148
"60","SRO-3-1-A","SRO","SAN ROQUE","3","1","A",33.2603335726166,-30.8944521272021,1.98635044795197,-52.4009706724975,150.713844466943,-10.1327479073865,427.800572595418,-7.39550397767439,"SRO-3-1-A","SRO-3-1-A","gleon",20,20,101.325,0.14,0.035,0,52.6697273309505,10.0877906745695,311.492605997154,26.3352548647132,2.06266389149473,0.395060362447794,0.485173026990654,0.0410191287795768,12.3117477406374,15681.6540766167,-19.0975750668602,2.2954986180238,-29.3443321196664,0.53863082362989
"61","SRO-3-2-A","SRO","SAN ROQUE","3","2","A",16.1331432955258,-26.5296091762474,1.98635044795197,-52.4009706724975,146.052614763711,-8.82641903245155,427.800572595418,-7.39550397767439,"SRO-3-2-A","SRO-3-2-A","gleon",20,20,101.325,0.14,0.035,0,46.359172327629,9.80308828504877,141.991570276495,12.6553806120845,1.81552849512457,0.383910782443388,0.22116248871356,0.0197117016618365,10.8366316684368,7148.36450047852,-14.5966613268398,1.88823136317115,-22.9797498336126,0.630417541487028
"62","SRO-3-3-A","SRO","SAN ROQUE","3","3","A",12.2932341176256,-22.3373494011281,1.98635044795197,-52.4009706724975,137.445144670985,-8.84067783578277,427.800572595418,-7.39550397767439,"SRO-3-3-A","SRO-3-3-A","gleon",20,20,101.325,0.14,0.035,0,34.7060428064784,9.34962890854172,103.989506178571,9.79138241741309,1.35916597524374,0.366152302770546,0.161971432119263,0.0152508103063056,8.11266861938046,5235.20440644245,-16.2418936351516,8.27547456873828,-16.8983958545353,0.77262941109093
"63","SRO-3-4-A","SRO","SAN ROQUE","3","4","A",10.8613723294089,-22.8272440811379,1.98635044795197,-52.4009706724975,152.274607022808,-9.81174253703842,427.800572595418,-7.39550397767439,"SRO-3-4-A","SRO-3-4-A","gleon",20,20,101.325,0.14,0.035,0,54.7827486971966,10.3243486404573,89.8189357472835,8.64460958169644,2.14541451685351,0.404324499537706,0.139899709009423,0.0134646258599872,12.805674467623,4521.80710810076,-17.5861551498409,1.95112824806465,-16.6786464391028,0.839305089614675
"64","SRO-3-5-A","SRO","SAN ROQUE","3","5","A",12.1181885761287,-25.1676335264653,1.98635044795197,-52.4009706724975,138.285293906634,-9.48678775749901,427.800572595418,-7.39550397767439,"SRO-3-5-A","SRO-3-5-A","gleon",20,20,101.325,0.14,0.035,0,35.8434696873898,9.34608478791762,102.257149609747,9.53894258815631,1.40371014654217,0.366013507109188,0.159273157219181,0.0148576163950041,8.37854644979351,5147.99136855128,-19.4166055986378,11.2209227722521,-20.1312495380668,0.743747082319469
"65","SRO-3-6-A","SRO","SAN ROQUE","3","6","A",10.2571181039554,-25.7837557217574,1.98635044795197,-52.4009706724975,186.184338039159,-8.2169273298218,427.800572595418,-7.39550397767439,"SRO-3-6-A","SRO-3-6-A","gleon",20,20,101.325,0.14,0.035,0,100.691068250331,12.5234749092561,83.8388704011339,8.07183083452181,3.94328661264859,0.490447184756609,0.130585310048634,0.0125724801293589,23.5369175967787,4220.74918791778,-10.5498031133455,0.822800571887151,-19.8433099172107,0.830609656239379
"66","STE-1-1-A","STE","STECHLIN","1","1","A",9.60602732695321,-49.046650770734,1.74892593654754,-52.6221753280246,296.585332156552,-7.30810659486206,369.252282654483,-8.09389566643596,"STE-1-1-A","STE-1-1-A","gleon",20,20,101.325,0.14,0.035,0,270.872924151102,20.4136534944569,79.507554286545,7.64703446557186,10.6079873229521,0.799444160626178,0.123838961308055,0.011910828018811,73.3571427653335,4546.07897481906,-8.02708025398001,0.462146544978508,-48.0169262481887,0.602469403574638
"67","STE-1-2-A","STE","STECHLIN","1","2","A",12.2693097962376,-49.5996805204752,1.74892593654754,-52.6221753280246,311.806950810693,-5.98539828595544,369.252282654483,-8.09389566643596,"STE-1-2-A","STE-1-2-A","gleon",20,20,101.325,0.14,0.035,0,291.480546575277,20.9664888023809,105.865008700081,9.61239466368436,11.4150277391064,0.821094423222625,0.164892667544987,0.0149720234953223,78.938048664149,6053.14418911665,-6.13826622646646,0.453125444855009,-48.8254495330182,0.57114693164297
"68","STE-1-3-A","STE","STECHLIN","1","3","A",20.6843477382798,-46.5341794044974,1.74892593654754,-52.6221753280246,265.010125278912,-6.12097020019222,369.252282654483,-8.09389566643596,"STE-1-3-A","STE-1-3-A","gleon",20,20,101.325,0.14,0.035,0,228.125174645332,17.9373917179083,189.14531467722,16.4715201667183,8.9338901932258,0.702468231355061,0.294607971734279,0.0256556243858235,61.7803018048757,10814.9413719944,-6.08900135702484,0.500529213297474,-45.703367678575,0.546572867535162
"69","STE-1-4-A","STE","STECHLIN","1","4","A",3.17199860558818,-52.8036289256847,1.74892593654754,-52.6221753280246,400.979274920493,-6.94172140890986,369.252282654483,-8.09389566643596,"STE-1-4-A","STE-1-4-A","gleon",20,20,101.325,0.14,0.035,0,412.205525153088,27.318509726404,15.8325139276727,2.52252399373966,16.1428869237428,1.06985371745011,0.0246603243841712,0.00392901975243164,111.632492070143,905.270691961194,-7.67451922710593,0.418002785295731,-52.6519535953895,0.997975890904088
"70","STE-1-5-A","STE","STECHLIN","1","5","A",4.4473281127468,-51.6344197618818,1.74892593654754,-52.6221753280246,377.35269966665,-6.71589789025566,369.252282654483,-8.09389566643596,"STE-1-5-A","STE-1-5-A","gleon",20,20,101.325,0.14,0.035,0,380.218943891899,25.2741484010509,28.4539462146516,3.57152208538146,14.8902211226603,0.989791972294727,0.044319148991029,0.00556291272334191,102.969964371941,1626.93831797252,-7.34037195567689,0.418275508851114,-50.7642842852275,0.785583425358027
"71","STE-2-1-A","STE","STECHLIN","2","1","A",7.24621473791428,-49.6402240992364,2.04064215192052,-51.3575496189346,331.276725481232,-6.68012252759852,400.905800399145,-6.63074315369002,"STE-2-1-A","STE-2-1-A","gleon",20,20,101.325,0.14,0.035,0,306.639236621941,22.2651925534832,53.5581374660958,5.78304541340396,12.008675820957,0.87195455614709,0.0834208041350575,0.00900752568255584,76.4866051617733,2624.57273146545,-7.80096620452966,0.457819592970983,-48.7280963303799,0.675327608329525
"72","STE-2-2-A","STE","STECHLIN","2","2","A",20.6613077680208,-47.2397062511244,2.04064215192052,-51.3575496189346,290.974627985026,-6.22785299763368,400.905800399145,-6.63074315369002,"STE-2-2-A","STE-2-2-A","gleon",20,20,101.325,0.14,0.035,0,252.076681418385,19.756303332284,186.322013274351,16.5484399572135,9.87188457199366,0.773700863436456,0.290210468675252,0.0257754327115158,62.8767858103863,9130.55790301093,-7.09912657325793,0.487253791746574,-46.5084730954603,0.551285902630485
"73","STE-2-3-A","STE","STECHLIN","2","3","A",17.7036881001554,-46.8605224353628,2.04064215192052,-51.3575496189346,334.49676191772,-8.18797956593317,400.905800399145,-6.63074315369002,"STE-2-3-A","STE-2-3-A","gleon",20,20,101.325,0.14,0.035,0,310.998647837198,22.9307157935693,157.051619890474,13.9472376352441,12.179400078658,0.898017929280775,0.244619642164935,0.0217238655793685,77.5739955689256,7696.18620994707,-9.99628347495841,0.462281064975803,-46.0106769805233,0.560974666519571
"74","STE-2-4-A","STE","STECHLIN","2","4","A",19.1713499673505,-46.9054471309382,2.04064215192052,-51.3575496189346,308.73884342866,-6.13338198584639,400.905800399145,-6.63074315369002,"STE-2-4-A","STE-2-4-A","gleon",20,20,101.325,0.14,0.035,0,276.126570779166,20.9032793351847,171.576489559846,15.129594709465,10.8137318321327,0.818618999631249,0.267243212832286,0.0235654751381161,68.8756736630531,8407.96557095371,-6.97586967476239,0.478283474690396,-46.1043629357659,0.561666184076251
"75","STE-2-5-A","STE","STECHLIN","2","5","A",21.2987814469793,-46.4180042844197,2.04064215192052,-51.3575496189346,294.198258455492,-6.24550217996632,400.905800399145,-6.63074315369002,"STE-2-5-A","STE-2-5-A","gleon",20,20,101.325,0.14,0.035,0,256.44095837735,20.0196681492948,192.630838427807,17.0234252882545,10.042799383061,0.784014816552731,0.300036935620297,0.0265152578836082,63.9653899050689,9439.71672086236,-7.13039737793614,0.484877614826069,-45.6224693041778,0.547709672069708
"76","STE-3-1-A","STE","STECHLIN","3","1","A",22.9378451978802,-50.8987672575938,2.1049508214968,-52.99858737417,492.022874476041,-9.55930993274895,418.529800591355,-8.15467615065788,"STE-3-1-A","STE-3-1-A","gleon",20,20,101.325,0.14,0.035,0,518.027597233074,33.1672147917721,208.279875997601,18.2259907074899,20.287115080289,1.29890204106366,0.324411481856867,0.0283883434508786,123.773168959806,9894.76209470281,-11.0588625071334,0.40535074314899,-50.3799676702879,0.547836561057997
"77","STE-3-2-A","STE","STECHLIN","3","2","A",12.483538754734,-49.3489736107241,2.1049508214968,-52.99858737417,275.022318493793,-6.3174397086069,418.529800591355,-8.15467615065788,"STE-3-2-A","STE-3-2-A","gleon",20,20,101.325,0.14,0.035,0,224.243760893081,18.2980858599401,104.817735320348,9.82443964503682,8.78188538134565,0.716593817727814,0.163261460941846,0.0153022994103207,53.5789233111333,4979.58119733236,-6.20211543871823,0.526290908478063,-48.3669273740814,0.589499198821559
"78","STE-3-3-A","STE","STECHLIN","3","3","A",12.531357146297,-48.8310676046139,2.1049508214968,-52.99858737417,317.96025991901,-5.2886208495901,418.529800591355,-8.15467615065788,"STE-3-3-A","STE-3-3-A","gleon",20,20,101.325,0.14,0.035,0,282.374824656227,21.3082691719441,105.29097505,9.8562500657148,11.0584273775667,0.834479304118059,0.163998567209241,0.0153518465192826,67.4682720937076,5002.06341994864,-4.88351074661812,0.485563312041674,-47.7598379597285,0.599168268498158
"79","STE-3-4-A","STE","STECHLIN","3","4","A",13.439016346797,-48.8036494660346,2.1049508214968,-52.99858737417,288.378458691831,-6.38340256771585,418.529800591355,-8.15467615065788,"STE-3-4-A","STE-3-4-A","gleon",20,20,101.325,0.14,0.035,0,242.325825652378,19.5292010038783,114.273719567758,10.6363399080671,9.49001933139089,0.764807030181284,0.177989863517585,0.0165668947831961,57.8993001955865,5428.80709614392,-6.39892689083079,0.518649980678757,-47.786192634165,0.586681522802227
"80","STE-3-5-A","STE","STECHLIN","3","5","A",13.5958200626896,-49.0919632617734,2.1049508214968,-52.99858737417,275.581740096158,-5.8792413070271,418.529800591355,-8.15467615065788,"STE-3-5-A","STE-3-5-A","gleon",20,20,101.325,0.14,0.035,0,225.001127728987,18.6894154333669,115.825543995387,10.7616920975717,8.81154555435592,0.731919155861984,0.180406946107718,0.0167621401920788,53.7598821902469,5502.52969392537,-5.47958585624974,0.531678837024979,-48.1303321163116,0.580223454214815
"81","TIE-1-1-A","TIE","TIEFWAREN","1","1","A",1.9752294293601,-52.4015884211527,1.99983134845764,-53.5574241190394,409.26350043734,-7.57831648623251,413.661296904828,-6.93365264953793,"TIE-1-1-A","TIE-1-1-A","gleon",20,20,101.325,0.14,0.035,0,407.707388114996,27.9346073994913,1.75635587464763,1.56857308559423,15.966729853683,1.0939814752402,0.00273565561355055,0.00244316987736388,98.5606802390311,87.8251996600717,-8.90775489356195,0.429878864070406,-40.3630883471013,58621.3951627156
"82","TIE-1-2-A","TIE","TIEFWAREN","1","2","A",14.1972267619113,-53.3744386192857,1.99983134845764,-53.5574241190394,695.825682250393,-11.8989050362168,413.661296904828,-6.93365264953793,"TIE-1-2-A","TIE-1-2-A","gleon",20,20,101.325,0.14,0.035,0,795.66647302114,46.8402216626518,122.712634921397,11.2450283221282,31.1600721465906,1.83436745905435,0.191134105235734,0.0175149725052941,192.347333186503,6136.14918158167,-13.9103049686073,0.377782515097797,-53.0179081414418,0.571774106691463
"83","TIE-1-3-A","TIE","TIEFWAREN","1","3","A",14.8551338216,-48.8381845147795,1.99983134845764,-53.5574241190394,660.311311041795,-11.7485602227949,413.661296904828,-6.93365264953793,"TIE-1-3-A","TIE-1-3-A","gleon",20,20,101.325,0.14,0.035,0,747.585728842226,44.6573377108857,129.223681171308,11.6667100503632,29.2771230614191,1.74888085916483,0.201275546660428,0.0181717733300184,180.724117638258,6461.72894884217,-13.7892692318722,0.380218957915154,-47.8584325574005,0.57169089142479
"84","TIE-1-4-A","TIE","TIEFWAREN","1","4","A",10.8508110269163,-52.79734651767,1.99983134845764,-53.5574241190394,612.995409695665,-11.3403835685044,413.661296904828,-6.93365264953793,"TIE-1-4-A","TIE-1-4-A","gleon",20,20,101.325,0.14,0.035,0,683.527611781512,41.7247217857977,89.594480463086,8.5030360183467,26.7684644502204,1.63403308449737,0.139550103119711,0.0132441144483202,165.238473334568,4480.1018111945,-13.3820340689619,0.384943765862249,-52.3164099894404,0.598664694781401
"85","TIE-1-5-A","TIE","TIEFWAREN","1","5","A",14.5196438465052,-49.1593300250618,1.99983134845764,-53.5574241190394,655.20430873268,-11.6520184902371,413.661296904828,-6.93365264953793,"TIE-1-5-A","TIE-1-5-A","gleon",20,20,101.325,0.14,0.035,0,740.67166945755,43.9135724353076,125.903469430066,11.3763613349599,29.0063530886261,1.71975335356673,0.196104068590857,0.0177195334937496,179.052687548857,6295.70436162875,-13.682449230106,0.380094243434095,-48.207825212442,0.570423967784031
"86","TIE-2-1-A","TIE","TIEFWAREN","2","1","A",15.1850631543542,-49.2213182649791,1.98849417586078,-51.8607392211021,698.974549175625,-12.0094274176615,405.453056883908,-7.20523268495905,"TIE-2-1-A","TIE-2-1-A","gleon",20,20,101.325,0.14,0.035,0,802.833928390775,47.0306322235827,132.58972377776,12.0517862276252,31.4407656708222,1.84182436093127,0.206518409729758,0.0187715582717704,198.009094951934,6667.84571900315,-13.96592935524,0.371375175430809,-48.5391522659711,0.564238381506019
"87","TIE-2-2-A","TIE","TIEFWAREN","2","2","A",15.6150812239326,-46.9978758581191,1.98849417586078,-51.8607392211021,748.763590311555,-12.2115497264249,405.453056883908,-7.20523268495905,"TIE-2-2-A","TIE-2-2-A","gleon",20,20,101.325,0.14,0.035,0,870.240278786484,50.9045274515172,136.845442724822,12.4491242704862,34.0805485606222,1.9935347306449,0.213147010228822,0.0193904419861246,214.634040614881,6881.86288831266,-14.1348757960897,0.370095634770698,-46.0392237784778,0.566390975239483
"88","TIE-2-3-A","TIE","TIEFWAREN","2","3","A",5.88606419577871,-51.7827004174753,1.98849417586078,-51.8607392211021,559.121226788268,-10.7243413643842,405.453056883908,-7.20523268495905,"TIE-2-3-A","TIE-2-3-A","gleon",20,20,101.325,0.14,0.035,0,613.495032967793,37.7254225722653,40.5612048471231,4.70261529697878,24.0258326032841,1.4774116152575,0.0631771096815263,0.00732467498258559,151.310989657541,2039.79500365219,-12.6452810817091,0.384150904383574,-51.418663643987,0.711945441409552
"89","TIE-2-4-A","TIE","TIEFWAREN","2","4","A",17.7764099433523,-48.6159311878185,1.98849417586078,-51.8607392211021,771.777088697617,-12.1412819979534,405.453056883908,-7.20523268495905,"TIE-2-4-A","TIE-2-4-A","gleon",20,20,101.325,0.14,0.035,0,901.396852615791,52.473323845188,158.235259183186,14.0267603302354,35.3007094210836,2.05497229332676,0.246463248874865,0.0218477281234564,222.318425601089,7957.54199856728,-14.0248971431635,0.371807096244092,-47.9231586740371,0.560771712731643
"90","TIE-2-5-A","TIE","TIEFWAREN","2","5","A",17.4087409466406,-48.1468989550989,1.98849417586078,-51.8607392211021,784.218563702708,-12.34437117675,405.453056883908,-7.20523268495905,"TIE-2-5-A","TIE-2-5-A","gleon",20,20,101.325,0.14,0.035,0,918.24060787798,53.6468418561561,154.596584377992,13.7496084363042,35.9603484117733,2.10092987370368,0.240795740768792,0.0214160433234775,226.472730267489,7774.55555337848,-14.245305866154,0.368081818046896,-47.3919155667861,0.554609425928352
"91","TIE-3-1-A","TIE","TIEFWAREN","3","1","A",8.95319903535616,-52.4928541491183,1.95895308707537,-53.0027046324236,751.80821244739,-11.7288803129015,406.758034411207,-7.51035074702118,"TIE-3-1-A","TIE-3-1-A","gleon",20,20,101.325,0.14,0.035,0,873.900455196341,50.8060972728328,71.1782420152995,7.03585985170436,34.2238892251689,1.98967998550582,0.110865434586758,0.0109588778545986,214.845284239151,3633.48374623741,-13.5216503607476,0.370939694484077,-52.0380169779693,0.629040138877795
"92","TIE-3-2-A","TIE","TIEFWAREN","3","2","A",13.1982668963663,-53.5845267428119,1.95895308707537,-53.0027046324236,876.158679190051,-13.155526542198,406.758034411207,-7.51035074702118,"TIE-3-2-A","TIE-3-2-A","gleon",20,20,101.325,0.14,0.035,0,1042.25097856236,58.9226509517548,113.190001533623,10.3055766239448,40.8168708724701,2.30754231449975,0.176301891639914,0.0160517062339807,256.233654996156,5778.0863809562,-15.0330821766396,0.362116598362066,-53.3441107523604,0.573288131610421
"93","TIE-3-3-A","TIE","TIEFWAREN","3","3","A",11.6910699513911,-52.9721728990792,1.95895308707537,-53.0027046324236,837.917563409356,-13.6916252064753,406.758034411207,-7.51035074702118,"TIE-3-3-A","TIE-3-3-A","gleon",20,20,101.325,0.14,0.035,0,990.478660979477,57.2209987649829,98.2738688186129,9.20473868188334,38.7893515464977,2.24090182290421,0.153068899520666,0.0143370688195023,243.505616899054,5016.65248989354,-15.6878289477053,0.357885492642674,-52.6367583568139,0.593096720953539
"94","TIE-3-4-A","TIE","TIEFWAREN","3","4","A",12.8053332970641,-53.1954443130246,1.95895308707537,-53.0027046324236,869.90861597926,-13.3388311511576,406.758034411207,-7.51035074702118,"TIE-3-4-A","TIE-3-4-A","gleon",20,20,101.325,0.14,0.035,0,1033.78939864095,59.5119370237591,109.301292937896,10.1408064129335,40.485496546964,2.33062007024445,0.170244937207773,0.0157950643089554,254.153406001528,5579.57684944245,-15.2482876113562,0.359819448920262,-52.8961765502312,0.58511439671608
"95","TIE-3-5-A","TIE","TIEFWAREN","3","5","A",11.4872007569212,-50.8858442309508,1.95895308707537,-53.0027046324236,861.522835543252,-13.2526221064433,406.758034411207,-7.51035074702118,"TIE-3-5-A","TIE-3-5-A","gleon",20,20,101.325,0.14,0.035,0,1022.43640124404,58.0732677255699,96.2562559436974,9.1027222921375,40.0408878698827,2.27427857459686,0.149926316592624,0.0141781706637749,251.362312418497,4913.65804412416,-15.1589533482657,0.361735975289849,-50.1725682578736,0.592644382669548
